timestamp,kw_energy_consumption,prediction,anomaly_score,anomaly_likelihood
2015-10-14 17:21:32.879996,389.0,389.0,1.0,0.5
2015-10-14 17:21:32.886460,385.0,389.0,1.0,0.5
2015-10-14 17:21:32.892650,386.0,387.79999999999995,1.0,0.5
2015-10-14 17:21:32.899054,390.0,386.0,0.0,0.5
2015-10-14 17:21:32.905461,392.0,390.0,0.0,0.5
2015-10-14 17:21:32.911884,386.0,390.6,0.0,0.5
2015-10-14 17:21:32.918340,383.0,386.0,0.0,0.5
2015-10-14 17:21:32.924207,389.0,386.3599999999999,0.0,0.5
2015-10-14 17:21:32.930723,400.0,386.3599999999999,0.0,0.5
2015-10-14 17:21:32.936169,409.0,393.42,0.0,0.5
2015-10-14 17:21:32.942610,414.0,398.094,0.0,0.5
2015-10-14 17:21:32.947806,423.0,402.8658,0.0,0.5
2015-10-14 17:21:32.952960,415.0,408.90605999999997,0.0,0.5
2015-10-14 17:21:32.959357,399.0,408.90605999999997,0.0,0.5
2015-10-14 17:21:32.965747,397.0,408.90605999999997,0.0,0.5
2015-10-14 17:21:32.971190,413.0,408.90605999999997,0.0,0.5
2015-10-14 17:21:32.976321,409.0,408.90605999999997,0.0,0.5
2015-10-14 17:21:32.982821,402.0,408.90605999999997,0.0,0.5
2015-10-14 17:21:32.989236,403.0,408.90605999999997,0.0,0.5
2015-10-14 17:21:32.994416,409.0,408.90605999999997,0.0,0.5
2015-10-14 17:21:33.000824,408.0,408.90605999999997,0.0,0.5
2015-10-14 17:21:33.006043,404.0,408.90605999999997,0.0,0.5
2015-10-14 17:21:33.012462,410.0,408.90605999999997,0.0,0.5
2015-10-14 17:21:33.017631,422.0,408.90605999999997,0.0,0.5
2015-10-14 17:21:33.023486,428.0,408.90605999999997,0.0,0.5
2015-10-14 17:21:33.029070,426.0,414.634242,0.0,0.5
2015-10-14 17:21:33.035529,430.0,414.634242,0.0,0.5
2015-10-14 17:21:33.040806,443.0,419.24396939999997,0.0,0.5
2015-10-14 17:21:33.047246,473.0,426.37077858,0.0,0.5
2015-10-14 17:21:33.052522,553.0,440.35954500599996,0.0,0.5
2015-10-14 17:21:33.058979,669.0,474.1516815041999,0.0,0.5
2015-10-14 17:21:33.064145,811.0,532.60617705294,0.0,0.5
2015-10-14 17:21:33.070575,915.0,616.124323937058,0.0,0.5
2015-10-14 17:21:33.077023,941.0,705.7870267559406,0.0,0.5
2015-10-14 17:21:33.083426,852.0,776.3509187291584,0.0,0.5
2015-10-14 17:21:33.089850,578.0,776.3509187291584,0.0,0.5
2015-10-14 17:21:33.095069,318.0,776.3509187291584,0.0,0.5
2015-10-14 17:21:33.100362,294.0,776.3509187291584,0.0,0.5
2015-10-14 17:21:33.106391,366.0,344.2963999999999,0.0,0.5
2015-10-14 17:21:33.112823,423.0,344.2963999999999,0.0,0.5
2015-10-14 17:21:33.118287,452.0,344.2963999999999,0.0,0.5
2015-10-14 17:21:33.124579,464.0,344.2963999999999,0.0,0.5
2015-10-14 17:21:33.131003,466.0,344.2963999999999,0.0,0.5
2015-10-14 17:21:33.137439,460.0,344.2963999999999,0.0,0.5
2015-10-14 17:21:33.143510,455.0,344.2963999999999,0.0,0.5
2015-10-14 17:21:33.149946,461.0,344.2963999999999,0.0,0.5
2015-10-14 17:21:33.156392,464.0,344.2963999999999,0.0,0.5
2015-10-14 17:21:33.162816,467.0,463.99999999999994,0.0,0.5
2015-10-14 17:21:33.168408,471.0,466.29999999999995,0.0,0.5
2015-10-14 17:21:33.174970,476.0,776.3509187291584,0.0,0.5
2015-10-14 17:21:33.180242,476.0,776.3509187291584,0.0,0.5
2015-10-14 17:21:33.185523,473.0,473.0,1.0,0.5
2015-10-14 17:21:33.191575,477.0,477.0,1.0,0.5
2015-10-14 17:21:33.197004,491.0,491.0,1.0,0.5
2015-10-14 17:21:33.203209,506.0,506.0,1.0,0.5
2015-10-14 17:21:33.209679,504.0,504.0,1.0,0.5
2015-10-14 17:21:33.214974,500.0,500.0,1.0,0.5
2015-10-14 17:21:33.220138,509.0,509.0,1.0,0.5
2015-10-14 17:21:33.226430,518.0,518.0,1.0,0.5
2015-10-14 17:21:33.232938,520.0,520.0,1.0,0.5
2015-10-14 17:21:33.238220,528.0,528.0,1.0,0.5
2015-10-14 17:21:33.244640,542.0,542.0,1.0,0.5
2015-10-14 17:21:33.249908,548.0,548.0,1.0,0.5
2015-10-14 17:21:33.255349,557.0,557.0,1.0,0.5
2015-10-14 17:21:33.261271,569.0,776.3509187291584,1.0,0.5
2015-10-14 17:21:33.267791,583.0,776.3509187291584,1.0,0.5
2015-10-14 17:21:33.273009,597.0,776.3509187291584,1.0,0.5
2015-10-14 17:21:33.279419,611.0,776.3509187291584,1.0,0.5
2015-10-14 17:21:33.284637,621.0,776.3509187291584,1.0,0.5
2015-10-14 17:21:33.289984,634.0,621.0,1.0,0.5
2015-10-14 17:21:33.296074,649.0,472.99999999999994,0.80000000000000004,0.5
2015-10-14 17:21:33.301431,660.0,649.0,1.0,0.5
2015-10-14 17:21:33.307699,665.0,660.0,0.625,0.5
2015-10-14 17:21:33.313377,665.0,665.0,1.0,0.5
2015-10-14 17:21:33.319317,665.0,665.0,0.5,0.5
2015-10-14 17:21:33.324539,668.0,665.0,1.0,0.5
2015-10-14 17:21:33.330903,671.0,665.0,0.40000000000000002,0.5
2015-10-14 17:21:33.337382,664.0,665.0,1.0,0.5
2015-10-14 17:21:33.342623,646.0,665.0,0.375,0.5
2015-10-14 17:21:33.349068,624.0,665.0,1.0,0.5
2015-10-14 17:21:33.354287,603.0,583.0,0.34999999999999998,0.5
2015-10-14 17:21:33.359444,580.0,665.0,1.0,0.5
2015-10-14 17:21:33.365750,552.0,583.0,0.29999999999999999,0.5
2015-10-14 17:21:33.372217,528.0,552.0,0.94999999999999996,0.5
2015-10-14 17:21:33.377400,513.0,552.0,0.25,0.5
2015-10-14 17:21:33.382669,499.0,513.0,0.34999999999999998,0.5
2015-10-14 17:21:33.389024,483.0,499.0,0.34999999999999998,0.5
2015-10-14 17:21:33.394218,476.0,483.0,0.34999999999999998,0.5
2015-10-14 17:21:33.400589,473.0,476.0,0.34999999999999998,0.5
2015-10-14 17:21:33.407086,464.0,513.0,0.34999999999999998,0.5
2015-10-14 17:21:33.412276,460.0,513.0,0.22500000000000001,0.5
2015-10-14 17:21:33.417733,461.0,460.0,0.22500000000000001,0.5
2015-10-14 17:21:33.424144,458.0,461.0,0.22500000000000001,0.5
2015-10-14 17:21:33.430565,456.0,458.0,0.22500000000000001,0.5
2015-10-14 17:21:33.437023,463.0,457.4,0.22500000000000001,0.5
2015-10-14 17:21:33.442796,468.0,461.6,0.22500000000000001,0.5
2015-10-14 17:21:33.449276,462.0,466.80999999999995,0.25,0.5
2015-10-14 17:21:33.455465,454.0,461.72,0.0,0.5
2015-10-14 17:21:33.462016,457.0,461.72,0.0,0.5
2015-10-14 17:21:33.468436,461.0,457.28,0.0,0.5
2015-10-14 17:21:33.474861,461.0,461.504,0.10000000000000001,0.5
2015-10-14 17:21:33.481278,461.0,461.3528,0.22500000000000001,0.5
2015-10-14 17:21:33.487726,466.0,461.24695999999994,0.20000000000000001,0.5
2015-10-14 17:21:33.493469,475.0,461.24695999999994,0.25,0.5
2015-10-14 17:21:33.498849,472.0,461.24695999999994,0.25,0.5
2015-10-14 17:21:33.505070,468.0,461.24695999999994,0.22500000000000001,0.5
2015-10-14 17:21:33.511526,477.0,461.24695999999994,0.25,0.5
2015-10-14 17:21:33.516934,487.0,461.24695999999994,0.0,0.5
2015-10-14 17:21:33.523346,486.0,461.24695999999994,0.0,0.5
2015-10-14 17:21:33.528756,480.0,461.24695999999994,0.0,0.5
2015-10-14 17:21:33.533901,483.0,461.24695999999994,0.0,0.5
2015-10-14 17:21:33.539901,491.0,461.24695999999994,0.0,0.5
2015-10-14 17:21:33.546308,494.0,461.24695999999994,0.0,0.5
2015-10-14 17:21:33.551502,496.0,461.24695999999994,0.0,0.5
2015-10-14 17:21:33.557398,491.0,494.5999999999999,0.0,0.5
2015-10-14 17:21:33.563115,493.0,491.0,0.0,0.5
2015-10-14 17:21:33.569605,496.0,491.0,0.0,0.5
2015-10-14 17:21:33.574878,499.0,495.01999999999987,0.0,0.5
2015-10-14 17:21:33.581320,504.0,495.01999999999987,0.0,0.5
2015-10-14 17:21:33.586497,505.0,495.01999999999987,0.0,0.5
2015-10-14 17:21:33.592161,503.0,495.01999999999987,0.0,0.5
2015-10-14 17:21:33.597958,502.0,495.01999999999987,0.0,0.5
2015-10-14 17:21:33.603335,501.0,503.18999999999994,0.0,0.5
2015-10-14 17:21:33.609490,499.0,503.18999999999994,0.0,0.5
2015-10-14 17:21:33.614815,502.0,503.18999999999994,0.0,0.5
2015-10-14 17:21:33.621184,508.0,502.83299999999997,0.0,0.5
2015-10-14 17:21:33.627704,506.0,461.24695999999994,0.0,0.5
2015-10-14 17:21:33.632837,505.0,502.83299999999997,0.0,0.5
2015-10-14 17:21:33.639262,505.0,505.55299999999994,0.0,0.5
2015-10-14 17:21:33.644478,503.0,505.3870999999999,0.0,0.5
2015-10-14 17:21:33.649681,513.0,502.8831,0.0,0.5
2015-10-14 17:21:33.656101,514.0,505.3870999999999,0.0,0.5
2015-10-14 17:21:33.662559,505.0,513.3,0.0,0.5
2015-10-14 17:21:33.667810,498.0,505.2709699999999,0.0,0.5
2015-10-14 17:21:33.673873,496.0,498.69999999999993,0.0,0.5
2015-10-14 17:21:33.679246,500.0,505.2709699999999,0.0,0.5
2015-10-14 17:21:33.685891,508.0,500.2099999999999,0.0,0.5
2015-10-14 17:21:33.691069,512.0,505.2709699999999,0.0,0.5
2015-10-14 17:21:33.696918,509.0,512.91,0.0,0.5
2015-10-14 17:21:33.702453,499.0,508.6429999999999,0.0,0.5
2015-10-14 17:21:33.708979,497.0,498.7899999999999,0.0,0.5
2015-10-14 17:21:33.714148,504.0,508.6429999999999,0.0,0.5
2015-10-14 17:21:33.719467,507.0,498.25299999999993,0.0,0.5
2015-10-14 17:21:33.725656,504.0,461.24695999999994,0.0,0.5
2015-10-14 17:21:33.732117,508.0,461.24695999999994,0.0,0.5
2015-10-14 17:21:33.737394,510.0,461.24695999999994,0.0,0.5
2015-10-14 17:21:33.743012,512.0,508.10506999999996,0.0,0.5
2015-10-14 17:21:33.748893,515.0,503.45271899999995,0.0,0.5
2015-10-14 17:21:33.755403,509.0,508.10506999999996,0.0,0.5
2015-10-14 17:21:33.760752,506.0,510.0,0.0,0.5
2015-10-14 17:21:33.767217,509.0,512.637,0.0,0.5
2015-10-14 17:21:33.773794,516.0,508.5614842999999,0.0,0.5
2015-10-14 17:21:33.780268,521.0,503.45271899999995,0.0,0.5
2015-10-14 17:21:33.786699,520.0,505.4896789999999,0.0,0.5
2015-10-14 17:21:33.793120,513.0,508.5614842999999,0.0,0.5
2015-10-14 17:21:33.799605,511.0,515.3,0.0,0.5
2015-10-14 17:21:33.806054,513.0,508.5614842999999,0.0,0.5
2015-10-14 17:21:33.812485,517.0,503.45271899999995,0.0,0.5
2015-10-14 17:21:33.818574,518.0,512.8221299999999,0.0,0.5
2015-10-14 17:21:33.825106,511.0,510.29999999999995,0.0,0.5
2015-10-14 17:21:33.830424,509.0,512.8221299999999,0.0,0.5
2015-10-14 17:21:33.836824,511.0,508.6930390099999,0.0,0.5
2015-10-14 17:21:33.842640,511.0,503.45271899999995,0.0,0.5
2015-10-14 17:21:33.849053,510.0,510.7598999999999,0.0,0.5
2015-10-14 17:21:33.854286,516.0,508.6930390099999,0.0,0.5
2015-10-14 17:21:33.859723,518.0,512.8221299999999,0.0,0.5
2015-10-14 17:21:33.865022,510.0,461.24695999999994,0.0,0.5
2015-10-14 17:21:33.871463,512.0,461.24695999999994,0.0,0.5
2015-10-14 17:21:33.876666,519.0,461.24695999999994,0.0,0.5
2015-10-14 17:21:33.882998,514.0,510.3723509999999,0.0,0.5
2015-10-14 17:21:33.888262,506.0,510.3723509999999,0.0,0.5
2015-10-14 17:21:33.893882,512.0,515.5099999999999,0.0,0.5
2015-10-14 17:21:33.899979,522.0,508.6930390099999,0.0,0.5
2015-10-14 17:21:33.906447,515.0,510.3723509999999,0.0,0.5
2015-10-14 17:21:33.911736,501.0,512.7019905899999,0.0,0.5
2015-10-14 17:21:33.918140,504.0,518.1970999999999,0.0,0.5
2015-10-14 17:21:33.924566,515.0,512.7019905899999,0.0,0.5
2015-10-14 17:21:33.930991,517.0,505.6427752999999,0.0,0.5
2015-10-14 17:21:33.936634,517.0,512.7019905899999,0.0,0.5
2015-10-14 17:21:33.942565,518.0,522.0,0.0,0.5
2015-10-14 17:21:33.949049,514.0,515.2499,0.0,0.5
2015-10-14 17:21:33.955474,513.0,510.3723509999999,0.0,0.5
2015-10-14 17:21:33.961918,515.0,503.61690329999993,0.0,0.5
2015-10-14 17:21:33.968344,519.0,515.17493,0.0,0.5
2015-10-14 17:21:33.973914,525.0,518.0974237099999,0.0,0.5
2015-10-14 17:21:33.980363,526.0,518.0974237099999,0.0,0.5
2015-10-14 17:21:33.986785,518.0,518.0974237099999,0.0,0.5
2015-10-14 17:21:33.992746,515.0,513.0639753890999,0.0,0.5
2015-10-14 17:21:33.999237,525.0,513.0639753890999,0.0,0.5
2015-10-14 17:21:34.004551,528.0,515.122451,0.0,0.5
2015-10-14 17:21:34.010964,530.0,518.0681965969999,0.0,0.5
2015-10-14 17:21:34.016198,540.0,525.2099999999999,0.0,0.5
2015-10-14 17:21:34.022618,545.0,525.2099999999999,0.0,0.5
2015-10-14 17:21:34.028627,535.0,513.0639753890999,0.0,0.5
2015-10-14 17:21:34.033794,523.0,461.24695999999994,0.0,0.5
2015-10-14 17:21:34.039141,513.0,461.24695999999994,0.0,0.5
2015-10-14 17:21:34.045594,501.0,518.0681965969999,0.0,0.5
2015-10-14 17:21:34.050787,500.0,515.122451,0.0,0.5
2015-10-14 17:21:34.057312,516.0,525.2099999999999,0.0,0.5
2015-10-14 17:21:34.062547,528.0,528.0,0.0,0.5
2015-10-14 17:21:34.068972,522.0,530.0,0.0,0.5
2015-10-14 17:21:34.074114,513.0,541.4,0.0,0.5
2015-10-14 17:21:34.079535,508.0,545.0,0.0,0.5
2015-10-14 17:21:34.085634,515.0,535.0,0.0,0.5
2015-10-14 17:21:34.092335,518.0,522.2099999999999,0.0,0.5
2015-10-14 17:21:34.097473,514.0,513.0313479406589,0.0,0.5
2015-10-14 17:21:34.103534,522.0,500.4290299999999,0.0,0.5
2015-10-14 17:21:34.108838,526.0,518.0477376178999,0.0,0.5
2015-10-14 17:21:34.115339,541.0,515.27000099,0.0,0.5
2015-10-14 17:21:34.120615,601.0,528.0,0.0,0.5
2015-10-14 17:21:34.126155,714.0,522.1469999999999,0.0,0.5
2015-10-14 17:21:34.132049,849.0,513.3219435584612,0.0,0.5
2015-10-14 17:21:34.138528,971.0,508.48512730699986,0.0,0.5
2015-10-14 17:21:34.143777,994.0,515.27000099,0.0,0.5
2015-10-14 17:21:34.149580,988.0,518.0477376178999,0.0,0.5
2015-10-14 17:21:34.155456,839.0,513.3219435584612,0.0,0.5
2015-10-14 17:21:34.161918,503.0,522.1469999999999,0.0,0.5
2015-10-14 17:21:34.167094,332.0,525.4469999999999,0.0,0.5
2015-10-14 17:21:34.172218,372.0,461.24695999999994,0.0,0.5
2015-10-14 17:21:34.178496,460.0,461.24695999999994,0.0,0.5
2015-10-14 17:21:34.184961,507.0,461.24695999999994,0.0,0.5
2015-10-14 17:21:34.190327,511.0,541.28,0.0,0.5
2015-10-14 17:21:34.196745,505.0,503.90999999999997,0.0,0.5
2015-10-14 17:21:34.201965,501.0,500.49999999999994,0.0,0.5
2015-10-14 17:21:34.208386,495.0,849.0,0.0,0.5
2015-10-14 17:21:34.213532,494.0,882.5219501772874,0.0,0.5
2015-10-14 17:21:34.219952,498.0,882.5219501772874,0.0,0.5
2015-10-14 17:21:34.226368,502.0,988.0,0.0,0.5
2015-10-14 17:21:34.232807,506.0,839.0,0.0,0.5
2015-10-14 17:21:34.238438,508.0,491.79999999999995,0.0,0.5
2015-10-14 17:21:34.244663,503.0,332.0,0.0,0.5
2015-10-14 17:21:34.249912,500.0,367.79999999999995,0.0,0.5
2015-10-14 17:21:34.256348,511.0,460.0,0.0,0.5
2015-10-14 17:21:34.261673,524.0,500.7919999999999,0.0,0.5
2015-10-14 17:21:34.268090,520.0,503.31385999999986,0.0,0.5
2015-10-14 17:21:34.273891,512.0,500.7919999999999,0.0,0.5
2015-10-14 17:21:34.279434,515.0,495.76499999999993,0.0,0.5
2015-10-14 17:21:34.285877,530.0,487.34999999999997,0.0,0.5
2015-10-14 17:21:34.292317,537.0,487.34999999999997,0.0,0.5
2015-10-14 17:21:34.298767,534.0,487.5,0.0,0.5
2015-10-14 17:21:34.305220,530.0,495.76499999999993,0.0,0.5
2015-10-14 17:21:34.311693,538.0,500.7919999999999,0.0,0.5
2015-10-14 17:21:34.317818,553.0,497.5,0.0,0.5
2015-10-14 17:21:34.324325,561.0,495.15999999999997,0.0,0.5
2015-10-14 17:21:34.329550,568.0,495.76499999999993,0.0,0.5
2015-10-14 17:21:34.335995,581.0,505.9197019999999,0.0,0.5
2015-10-14 17:21:34.342072,597.0,511.1499427099999,0.0,0.5
2015-10-14 17:21:34.347581,607.0,508.5318323099999,0.0,0.5
2015-10-14 17:21:34.352697,617.0,505.9197019999999,0.0,0.5
2015-10-14 17:21:34.359109,628.0,461.24695999999994,0.0,0.5
2015-10-14 17:21:34.364466,639.0,461.24695999999994,0.0,0.5
2015-10-14 17:21:34.370718,649.0,461.24695999999994,0.0,0.5
2015-10-14 17:21:34.376024,660.0,503.2770999999999,0.0,0.5
2015-10-14 17:21:34.382460,662.0,521.8277523436459,0.0,0.5
2015-10-14 17:21:34.387701,658.0,523.7334163325299,0.0,0.5
2015-10-14 17:21:34.394042,653.0,520.889000693,0.0,0.5
2015-10-14 17:21:34.400385,652.0,521.8277523436459,0.0,0.5
2015-10-14 17:21:34.406718,651.0,509.0521299999999,0.0,0.5
2015-10-14 17:21:34.411831,641.0,553.0,0.0,0.5
2015-10-14 17:21:34.417974,625.0,547.1959999999999,0.0,0.5
2015-10-14 17:21:34.423779,611.0,551.9,0.0,0.5
2015-10-14 17:21:34.428841,581.0,581.0,0.0,0.5
2015-10-14 17:21:34.433957,547.0,597.0,0.0,0.5
2015-10-14 17:21:34.439367,533.0,607.0,0.0,0.5
2015-10-14 17:21:34.445397,525.0,617.0,0.0,0.5
2015-10-14 17:21:34.450603,497.0,541.137,0.0,0.5
2015-10-14 17:21:34.456968,464.0,639.0,0.0,0.5
2015-10-14 17:21:34.462897,445.0,649.0,0.0,0.5
2015-10-14 17:21:34.468943,443.0,529.0999999999999,0.0,0.5
2015-10-14 17:21:34.474121,441.0,662.0,0.0,0.5
2015-10-14 17:21:34.480325,434.0,658.0,0.0,0.5
2015-10-14 17:21:34.486757,433.0,642.2429999999999,0.0,0.5
2015-10-14 17:21:34.491972,431.0,642.2429999999999,0.0,0.5
2015-10-14 17:21:34.497594,428.0,642.2429999999999,0.0,0.5
2015-10-14 17:21:34.503570,429.0,641.0,0.0,0.5
2015-10-14 17:21:34.510029,433.0,625.0,0.0,0.5
2015-10-14 17:21:34.515200,434.0,611.0,0.0,0.5
2015-10-14 17:21:34.521636,422.0,581.0,0.0,0.5
2015-10-14 17:21:34.526875,419.0,533.6999999999999,0.0,0.5
2015-10-14 17:21:34.533285,436.0,524.5223004851,0.0,0.5
2015-10-14 17:21:34.539308,440.0,513.4395891149,0.0,0.5
2015-10-14 17:21:34.545454,438.0,490.35,0.0,0.5
2015-10-14 17:21:34.550846,435.0,455.59999999999997,0.0,0.5
2015-10-14 17:21:34.557279,434.0,445.0,0.0,0.5
2015-10-14 17:21:34.563724,439.0,443.0,0.0,0.5
2015-10-14 17:21:34.570144,441.0,440.18999999999994,0.0,0.5
2015-10-14 17:21:34.576600,439.0,461.24695999999994,0.0,0.5
2015-10-14 17:21:34.583045,442.0,440.0030999999999,0.0,0.5
2015-10-14 17:21:34.589495,447.0,440.0030999999999,0.0,0.5
2015-10-14 17:21:34.595513,443.0,425.3503099999999,0.0,0.5
2015-10-14 17:21:34.601931,441.0,432.5799999999999,0.0,0.5
2015-10-14 17:21:34.608069,442.0,432.5799999999999,0.0,0.5
2015-10-14 17:21:34.614568,447.0,428.29999999999995,0.0,0.5
2015-10-14 17:21:34.619897,450.0,428.29999999999995,0.0,0.5
2015-10-14 17:21:34.626253,445.0,432.5799999999999,0.0,0.5
2015-10-14 17:21:34.631428,442.0,425.3503099999999,0.0,0.5
2015-10-14 17:21:34.637838,446.0,422.0,0.0,0.5
2015-10-14 17:21:34.643144,455.0,419.0,0.0,0.5
2015-10-14 17:21:34.649543,456.0,436.6,0.0,0.5
2015-10-14 17:21:34.654639,457.0,440.30216999999993,0.0,0.5
2015-10-14 17:21:34.660013,462.0,436.6,0.0,0.5
2015-10-14 17:21:34.666409,460.0,425.3503099999999,0.0,0.5
2015-10-14 17:21:34.671536,464.0,425.3503099999999,0.0,0.5
2015-10-14 17:21:34.677725,468.0,440.30216999999993,0.0,0.5
2015-10-14 17:21:34.684330,467.0,440.30216999999993,0.0,0.5
2015-10-14 17:21:34.689587,471.0,440.30216999999993,0.0,0.5
2015-10-14 17:21:34.696000,481.0,442.3870999999999,0.0,0.5
2015-10-14 17:21:34.701183,478.0,447.0,0.0,0.5
2015-10-14 17:21:34.707595,468.0,442.3870999999999,0.0,0.5
2015-10-14 17:21:34.712802,468.0,463.2280999999999,0.0,0.5
2015-10-14 17:21:34.718486,471.0,464.6596699999999,0.0,0.5
2015-10-14 17:21:34.724563,478.0,440.30216999999993,0.0,0.5
2015-10-14 17:21:34.730932,480.0,442.3870999999999,0.0,0.5
2015-10-14 17:21:34.736108,476.0,447.0,0.0,0.5
2015-10-14 17:21:34.742429,480.0,450.0,0.0,0.5
2015-10-14 17:21:34.749037,474.0,445.29999999999995,0.0,0.5
2015-10-14 17:21:34.755444,465.0,442.3870999999999,0.0,0.5
2015-10-14 17:21:34.760607,472.0,445.29999999999995,0.0,0.5
2015-10-14 17:21:34.767028,482.0,455.0,0.0,0.5
2015-10-14 17:21:34.773491,476.0,456.29999999999995,0.0,0.5
2015-10-14 17:21:34.779910,469.0,456.29999999999995,0.0,0.5
2015-10-14 17:21:34.786354,469.0,462.0,0.0,0.5
2015-10-14 17:21:34.792847,472.0,460.0,0.0,0.5
2015-10-14 17:21:34.799299,474.0,460.18399999999997,0.0,0.5
2015-10-14 17:21:34.805351,473.0,464.6596699999999,0.0,0.5
2015-10-14 17:21:34.811842,475.0,464.6596699999999,0.0,0.5
2015-10-14 17:21:34.817052,481.0,466.68582799999984,0.0,0.5
2015-10-14 17:21:34.823580,476.0,476.40693669999985,0.0,0.5
2015-10-14 17:21:34.828900,471.0,475.6585999999999,0.0,0.5
2015-10-14 17:21:34.835326,481.0,464.6596699999999,0.0,0.5
2015-10-14 17:21:34.840470,488.0,464.6596699999999,0.0,0.5
2015-10-14 17:21:34.846882,487.0,467.98007959999984,0.0,0.5
2015-10-14 17:21:34.852062,481.0,475.6585999999999,0.0,0.5
2015-10-14 17:21:34.858463,477.0,475.6585999999999,0.0,0.5
2015-10-14 17:21:34.863757,478.0,473.6734565671999,0.0,0.5
2015-10-14 17:21:34.870190,489.0,476.36101999999994,0.0,0.5
2015-10-14 17:21:34.875907,493.0,470.84722,0.0,0.5
2015-10-14 17:21:34.882327,488.0,460.18399999999997,0.0,0.5
2015-10-14 17:21:34.888756,482.0,470.84722,0.0,0.5
2015-10-14 17:21:34.894001,484.0,479.7245792880999,0.0,0.5
2015-10-14 17:21:34.900393,490.0,473.6734565671999,0.0,0.5
2015-10-14 17:21:34.905761,495.0,467.98007959999984,0.0,0.5
2015-10-14 17:21:34.912106,495.0,467.98007959999984,0.0,0.5
2015-10-14 17:21:34.918447,491.0,470.84722,0.0,0.5
2015-10-14 17:21:34.924787,486.0,470.84722,0.0,0.5
2015-10-14 17:21:34.931125,484.0,470.84722,0.0,0.5
2015-10-14 17:21:34.937010,488.0,473.6734565671999,0.0,0.5
2015-10-14 17:21:34.943517,496.0,479.7245792880999,0.0,0.5
2015-10-14 17:21:34.949931,496.0,473.6734565671999,0.0,0.5
2015-10-14 17:21:34.956422,491.0,467.98007959999984,0.0,0.5
2015-10-14 17:21:34.962936,496.0,479.7245792880999,0.0,0.5
2015-10-14 17:21:34.968108,497.0,484.905629,0.0,0.5
2015-10-14 17:21:34.973249,496.0,484.905629,0.0,0.5
2015-10-14 17:21:34.979561,498.0,479.7245792880999,0.0,0.5
2015-10-14 17:21:34.985525,499.0,473.6734565671999,0.0,0.5
2015-10-14 17:21:34.991528,499.0,476.36101999999994,0.0,0.5
2015-10-14 17:21:34.997251,498.0,486.97366999999986,0.0,0.5
2015-10-14 17:21:35.002852,501.0,481.79999999999995,0.0,0.5
2015-10-14 17:21:35.009376,504.0,484.905629,0.0,0.5
2015-10-14 17:21:35.014635,501.0,479.7245792880999,0.0,0.5
2015-10-14 17:21:35.021048,499.0,477.62999999999994,0.0,0.5
2015-10-14 17:21:35.026325,500.0,486.97366999999986,0.0,0.5
2015-10-14 17:21:35.032776,507.0,494.85988514999985,0.0,0.5
2015-10-14 17:21:35.039220,511.0,494.85988514999985,0.0,0.5
2015-10-14 17:21:35.045643,506.0,486.97366999999986,0.0,0.5
2015-10-14 17:21:35.052067,501.0,484.905629,0.0,0.5
2015-10-14 17:21:35.058490,507.0,477.62999999999994,0.0,0.5
2015-10-14 17:21:35.063619,510.0,484.905629,0.0,0.5
2015-10-14 17:21:35.070034,514.0,494.85988514999985,0.0,0.5
2015-10-14 17:21:35.076469,505.0,494.85988514999985,0.0,0.5
2015-10-14 17:21:35.081690,499.0,486.97366999999986,0.0,0.5
2015-10-14 17:21:35.087604,508.0,494.85988514999985,0.0,0.5
2015-10-14 17:21:35.094070,518.0,498.0196249049999,0.0,0.5
2015-10-14 17:21:35.100501,521.0,494.85988514999985,0.0,0.5
2015-10-14 17:21:35.106166,523.0,498.0196249049999,0.0,0.5
2015-10-14 17:21:35.111571,525.0,498.0196249049999,0.0,0.5
2015-10-14 17:21:35.117986,529.0,498.0196249049999,0.0,0.5
2015-10-14 17:21:35.124426,525.0,498.0196249049999,0.0,0.5
2015-10-14 17:21:35.130553,516.0,499.5330764999999,0.0,0.5
2015-10-14 17:21:35.137064,509.0,497.81199999999995,0.0,0.5
2015-10-14 17:21:35.143355,505.0,499.5330764999999,0.0,0.5
2015-10-14 17:21:35.149777,500.0,498.0196249049999,0.0,0.5
2015-10-14 17:21:35.156216,499.0,499.6731535499999,0.0,0.5
2015-10-14 17:21:35.161699,504.0,504.8337214399999,0.0,0.5
2015-10-14 17:21:35.168112,506.0,507.4437913999999,0.0,0.5
2015-10-14 17:21:35.174016,503.0,505.18360500799986,0.0,0.5
2015-10-14 17:21:35.180284,496.0,499.6731535499999,0.0,0.5
2015-10-14 17:21:35.186329,497.0,505.18360500799986,0.0,0.5
2015-10-14 17:21:35.192751,499.0,504.99249999999995,0.0,0.044565462999999972
2015-10-14 17:21:35.197898,493.0,506.4939699999999,0.0,0.044565462999999972
2015-10-14 17:21:35.204337,503.0,505.18360500799986,0.0,0.044565462999999972
2015-10-14 17:21:35.210778,522.0,498.2437313424149,0.0,0.044565462999999972
2015-10-14 17:21:35.217226,517.0,504.99249999999995,0.0,0.044565462999999972
2015-10-14 17:21:35.223429,550.0,511.25315729,0.0,0.044565462999999972
2015-10-14 17:21:35.229957,653.0,512.2722826169999,0.0,0.044565462999999972
2015-10-14 17:21:35.235170,777.0,516.8934719278999,0.0,0.044565462999999972
2015-10-14 17:21:35.241634,906.0,519.335398666301,0.0,0.044565462999999972
2015-10-14 17:21:35.246872,989.0,515.9606457,0.0,0.044565462999999972
2015-10-14 17:21:35.252025,991.0,519.335398666301,0.0,0.044565462999999972
2015-10-14 17:21:35.258440,920.0,511.25315729,0.0,0.044565462999999972
2015-10-14 17:21:35.264858,627.0,504.99249999999995,0.0,0.044565462999999972
2015-10-14 17:21:35.270094,349.0,505.18360500799986,0.0,0.044565462999999972
2015-10-14 17:21:35.276493,330.0,499.6731535499999,0.0,0.044565462999999972
2015-10-14 17:21:35.281695,421.0,498.2437313424149,0.0,0.044565462999999972
2015-10-14 17:21:35.288078,489.0,501.3675159999999,0.0,0.044565462999999972
2015-10-14 17:21:35.293223,501.0,505.18360500799986,0.0,0.044565462999999972
2015-10-14 17:21:35.299609,491.0,501.3675159999999,0.0,0.044565462999999972
2015-10-14 17:21:35.304889,482.0,495.20191960499983,0.0,0.044565462999999972
2015-10-14 17:21:35.311308,477.0,498.2437313424149,0.0,0.044565462999999972
2015-10-14 17:21:35.316564,485.0,498.2437313424149,0.0,0.044565462999999972
2015-10-14 17:21:35.322984,496.0,485.15999999999997,0.0,0.044565462999999972
2015-10-14 17:21:35.328137,498.0,501.3675159999999,0.0,0.044565462999999972
2015-10-14 17:21:35.334632,496.0,516.8934719278999,0.0,0.044565462999999972
2015-10-14 17:21:35.341067,497.0,511.25315729,0.0,0.044565462999999972
2015-10-14 17:21:35.346896,503.0,536.0,0.0,0.044565462999999972
2015-10-14 17:21:35.352378,508.0,645.4700999999999,0.0,0.044565462999999972
2015-10-14 17:21:35.358864,510.0,777.0,0.0,0.044565462999999972
2015-10-14 17:21:35.364427,513.0,906.0,0.0,0.044565462999999972
2015-10-14 17:21:35.370843,521.0,988.3,0.0,0.044565462999999972
2015-10-14 17:21:35.377292,529.0,991.0,0.0,0.044565462999999972
2015-10-14 17:21:35.383711,531.0,920.0,0.0,0.044565462999999972
2015-10-14 17:21:35.390154,528.0,566.8959,0.0,0.044565462999999972
2015-10-14 17:21:35.396630,530.0,349.0,0.0,0.044565462999999972
2015-10-14 17:21:35.403086,543.0,330.0,0.0,0.044565462999999972
2015-10-14 17:21:35.409196,560.0,421.7,0.0,0.044565462999999972
2015-10-14 17:21:35.415701,564.0,488.60709829999985,0.0,0.044565462999999972
2015-10-14 17:21:35.421003,563.0,500.07120748499983,0.0,0.044565462999999972
2015-10-14 17:21:35.426401,565.0,488.60709829999985,0.0,0.044565462999999972
2015-10-14 17:21:35.432409,572.0,480.40720550166986,0.0,0.044565462999999972
2015-10-14 17:21:35.438881,586.0,474.67141959703986,0.0,0.044565462999999972
2015-10-14 17:21:35.444195,599.0,479.84099999999995,0.0,0.044565462999999972
2015-10-14 17:21:35.450606,610.0,495.6089406064498,0.0,0.044565462999999972
2015-10-14 17:21:35.456019,619.0,497.8194283577833,0.0,0.044565462999999972
2015-10-14 17:21:35.461198,625.0,495.6089406064498,0.0,0.044565462999999972
2015-10-14 17:21:35.467265,634.0,497.8194283577833,0.0,0.044565462999999972
2015-10-14 17:21:35.473844,642.0,501.8572611999999,0.0,0.044565462999999972
2015-10-14 17:21:35.480424,648.0,507.12632499999995,0.0,0.044565462999999972
2015-10-14 17:21:35.486871,657.0,507.12632499999995,0.0,0.044565462999999972
2015-10-14 17:21:35.493279,662.0,509.11065397999994,0.0,0.044565462999999972
2015-10-14 17:21:35.499719,663.0,514.8905978318999,0.0,0.044565462999999972
2015-10-14 17:21:35.505148,663.0,522.3107163929999,0.0,0.044565462999999972
2015-10-14 17:21:35.511259,654.0,526.2055986483865,0.0,0.044565462999999972
2015-10-14 17:21:35.517712,639.0,522.3107163929999,0.0,0.044565462999999972
2015-10-14 17:21:35.524156,632.0,526.2055986483865,0.0,0.044565462999999972
2015-10-14 17:21:35.530646,630.0,528.4028999999999,0.0,0.044565462999999972
2015-10-14 17:21:35.536980,613.0,551.0372,0.0,0.044565462999999972
2015-10-14 17:21:35.543576,582.0,564.0899999999999,0.0,0.044565462999999972
2015-10-14 17:21:35.550008,553.0,564.0899999999999,0.0,0.044565462999999972
2015-10-14 17:21:35.556438,528.0,564.0899999999999,0.0,0.044565462999999972
2015-10-14 17:21:35.562361,506.0,558.0,0.0,0.044565462999999972
2015-10-14 17:21:35.567793,488.0,586.0,0.0,0.044565462999999972
2015-10-14 17:21:35.573266,469.0,599.0,0.0,0.044565462999999972
2015-10-14 17:21:35.579698,455.0,610.7,0.0,0.044565462999999972
2015-10-14 17:21:35.586117,449.0,619.0,0.0,0.044565462999999972
2015-10-14 17:21:35.591573,441.0,625.0,0.0,0.044565462999999972
2015-10-14 17:21:35.598015,431.0,633.4,0.0,0.044565462999999972
2015-10-14 17:21:35.605612,424.0,641.3,0.0,0.044565462999999972
2015-10-14 17:21:35.612057,427.0,629.1,0.0,0.044565462999999972
2015-10-14 17:21:35.618188,431.0,657.6999999999999,0.0,0.044565462999999972
2015-10-14 17:21:35.624661,429.0,662.51,0.0,0.044565462999999972
2015-10-14 17:21:35.629919,434.0,662.51,0.0,0.044565462999999972
2015-10-14 17:21:35.636379,430.0,662.51,0.0,0.044565462999999972
2015-10-14 17:21:35.642826,427.0,654.0,0.0,0.044565462999999972
2015-10-14 17:21:35.649245,431.0,639.0,0.0,0.044565462999999972
2015-10-14 17:21:35.655673,434.0,633.4,0.0,0.044565462999999972
2015-10-14 17:21:35.661736,428.0,630.0,0.0,0.044565462999999972
2015-10-14 17:21:35.668183,420.0,613.0,0.0,0.044565462999999972
2015-10-14 17:21:35.673958,423.0,582.0,0.0,0.044565462999999972
2015-10-14 17:21:35.680415,434.0,553.0,0.0,0.044565462999999972
2015-10-14 17:21:35.686855,436.0,524.0175014751,0.0,0.044565462999999972
2015-10-14 17:21:35.692077,432.0,505.42852350559986,0.0,0.044565462999999972
2015-10-14 17:21:35.697857,438.0,485.8339403,0.0,0.044565462999999972
2015-10-14 17:21:35.703460,444.0,468.28605571999987,0.0,0.044565462999999972
2015-10-14 17:21:35.708766,438.0,455.0,0.0,0.044565462999999972
2015-10-14 17:21:35.714138,431.0,447.59999999999997,0.0,0.044565462999999972
2015-10-14 17:21:35.719915,444.0,440.5115189999999,0.0,0.044565462999999972
2015-10-14 17:21:35.725087,460.0,431.4755505999999,0.0,0.044565462999999972
2015-10-14 17:21:35.730597,452.0,423.69999999999993,0.0,0.044565462999999972
2015-10-14 17:21:35.735702,444.0,427.0,0.0,0.044565462999999972
2015-10-14 17:21:35.740811,452.0,431.4755505999999,0.0,0.044565462999999972
2015-10-14 17:21:35.746010,462.0,428.6699,0.0,0.044565462999999972
2015-10-14 17:21:35.752265,460.0,431.0331563299999,0.0,0.044565462999999972
2015-10-14 17:21:35.758719,457.0,428.6699,0.0,0.044565462999999972
2015-10-14 17:21:35.764591,462.0,427.0,0.0,0.044565462999999972
2015-10-14 17:21:35.770290,468.0,431.4755505999999,0.0,0.044565462999999972
2015-10-14 17:21:35.776711,468.0,431.0331563299999,0.0,0.044565462999999972
2015-10-14 17:21:35.783134,468.0,428.6699,0.0,0.044565462999999972
2015-10-14 17:21:35.788590,475.0,421.19,0.0,0.044565462999999972
2015-10-14 17:21:35.794991,476.0,423.69999999999993,0.0,0.044565462999999972
2015-10-14 17:21:35.801414,470.0,431.0331563299999,0.0,0.044565462999999972
2015-10-14 17:21:35.806842,473.0,437.22579999999994,0.0,0.044565462999999972
2015-10-14 17:21:35.813257,480.0,431.4755505999999,0.0,0.044565462999999972
2015-10-14 17:21:35.819622,475.0,437.22579999999994,0.0,0.044565462999999972
2015-10-14 17:21:35.825274,478.0,443.4467752999999,0.0,0.044565462999999972
2015-10-14 17:21:35.831157,488.0,437.22579999999994,0.0,0.044565462999999972
2015-10-14 17:21:35.837542,487.0,431.4755505999999,0.0,0.044565462999999972
2015-10-14 17:21:35.843943,476.0,443.4467752999999,0.0,0.044565462999999972
2015-10-14 17:21:35.850339,466.0,460.0,0.0,0.044565462999999972
2015-10-14 17:21:35.856845,469.0,451.02,0.0,0.044565462999999972
2015-10-14 17:21:35.862092,478.0,443.4467752999999,0.0,0.044565462999999972
2015-10-14 17:21:35.868517,484.0,451.02,0.0,0.044565462999999972
2015-10-14 17:21:35.873634,478.0,462.0,0.0,0.044565462999999972
2015-10-14 17:21:35.879577,472.0,460.0,0.0,0.044565462999999972
2015-10-14 17:21:35.885197,477.0,456.51,0.0,0.044565462999999972
2015-10-14 17:21:35.891669,479.0,462.0,0.0,0.044565462999999972
2015-10-14 17:21:35.896835,477.0,466.8542668099999,0.0,0.044565462999999972
2015-10-14 17:21:35.902216,475.0,466.8542668099999,0.0,0.044565462999999972
2015-10-14 17:21:35.908399,475.0,466.8542668099999,0.0,0.044565462999999972
2015-10-14 17:21:35.914885,476.0,475.5881826936443,0.0,0.044565462999999972
2015-10-14 17:21:35.920146,482.0,475.711727885551,0.0,0.044565462999999972
2015-10-14 17:21:35.925230,487.0,468.8601673027999,0.0,0.044565462999999972
2015-10-14 17:21:35.931662,478.0,471.64513780000004,0.0,0.044565462999999972
2015-10-14 17:21:35.937797,476.0,478.1180176419799,0.0,0.044565462999999972
2015-10-14 17:21:35.943291,486.0,475.79820951988563,0.0,0.044565462999999972
2015-10-14 17:21:35.948550,488.0,478.1180176419799,0.0,0.044565462999999972
2015-10-14 17:21:35.954906,485.0,486.966050346221,0.0,0.044565462999999972
2015-10-14 17:21:35.961412,488.0,486.966050346221,0.0,0.044565462999999972
2015-10-14 17:21:35.966730,493.0,475.79820951988563,0.0,0.044565462999999972
2015-10-14 17:21:35.973178,498.0,461.9287999999999,0.0,0.044565462999999972
2015-10-14 17:21:35.979194,492.0,468.8601673027999,0.0,0.044565462999999972
2015-10-14 17:21:35.985626,484.0,478.1180176419799,0.0,0.044565462999999972
2015-10-14 17:21:35.990807,487.0,482.7834629999999,0.0,0.044565462999999972
2015-10-14 17:21:35.997208,492.0,478.1180176419799,0.0,0.044565462999999972
2015-10-14 17:21:36.003632,491.0,471.64513780000004,0.0,0.044565462999999972
2015-10-14 17:21:36.008847,491.0,475.79820951988563,0.0,0.044565462999999972
2015-10-14 17:21:36.014112,495.0,478.1180176419799,0.0,0.044565462999999972
2015-10-14 17:21:36.020531,491.0,475.79820951988563,0.0,0.044565462999999972
2015-10-14 17:21:36.026331,489.0,475.79820951988563,0.0,0.044565462999999972
2015-10-14 17:21:36.032747,489.0,475.79820951988563,0.0,0.044565462999999972
2015-10-14 17:21:36.039176,493.0,475.79820951988563,0.0,0.044565462999999972
2015-10-14 17:21:36.045595,500.0,480.8850438511689,0.0,0.044565462999999972
2015-10-14 17:21:36.052056,499.0,487.1933646696483,0.0,0.044565462999999972
2015-10-14 17:21:36.058485,499.0,478.1180176419799,0.0,0.044565462999999972
2015-10-14 17:21:36.064739,507.0,475.79820951988563,0.0,0.044565462999999972
2015-10-14 17:21:36.071008,507.0,487.1933646696483,0.0,0.044565462999999972
2015-10-14 17:21:36.077534,496.0,487.1933646696483,0.0,0.044565462999999972
2015-10-14 17:21:36.082755,495.0,482.7834629999999,0.0,0.044565462999999972
2015-10-14 17:21:36.088660,502.0,487.1933646696483,0.0,0.044565462999999972
2015-10-14 17:21:36.094252,506.0,490.7606159999999,0.0,0.044565462999999972
2015-10-14 17:21:36.100764,506.0,498.4480639267196,0.0,0.044565462999999972
2015-10-14 17:21:36.106073,507.0,490.7606159999999,0.0,0.044565462999999972
2015-10-14 17:21:36.112489,511.0,482.7834629999999,0.0,0.044565462999999972
2015-10-14 17:21:36.117683,514.0,487.1933646696483,0.0,0.044565462999999972
2015-10-14 17:21:36.123098,515.0,490.7606159999999,0.0,0.044565462999999972
2015-10-14 17:21:36.129050,513.0,489.5778250112809,0.0,0.044565462999999972
2015-10-14 17:21:36.134633,513.0,489.5778250112809,0.0,0.044565462999999972
2015-10-14 17:21:36.141158,515.0,495.41886662801215,0.0,0.044565462999999972
2015-10-14 17:21:36.147595,515.0,489.5778250112809,0.0,0.044565462999999972
2015-10-14 17:21:36.153717,519.0,489.5778250112809,0.0,0.044565462999999972
2015-10-14 17:21:36.159610,519.0,489.5778250112809,0.0,0.044565462999999972
2015-10-14 17:21:36.164928,511.0,490.7606159999999,0.0,0.044565462999999972
2015-10-14 17:21:36.171369,506.0,500.63489166764987,0.0,0.044565462999999972
2015-10-14 17:21:36.177817,523.0,498.4480639267196,0.0,0.044565462999999972
2015-10-14 17:21:36.184241,531.0,498.4480639267196,0.0,0.044565462999999972
2015-10-14 17:21:36.190147,530.0,506.26521736191023,0.0,0.044565462999999972
2015-10-14 17:21:36.196563,529.0,506.26521736191023,0.0,0.044565462999999972
2015-10-14 17:21:36.203004,532.0,495.41886662801215,0.0,0.044565462999999972
2015-10-14 17:21:36.209444,532.0,495.41886662801215,0.0,0.044565462999999972
2015-10-14 17:21:36.215575,524.0,500.63489166764987,0.0,0.044565462999999972
2015-10-14 17:21:36.221946,519.0,506.26521736191023,0.0,0.044565462999999972
2015-10-14 17:21:36.228464,520.0,506.26521736191023,0.0,0.044565462999999972
2015-10-14 17:21:36.233716,514.0,506.26521736191023,0.0,0.044565462999999972
2015-10-14 17:21:36.238841,503.0,511.26036802059787,0.0,0.044565462999999972
2015-10-14 17:21:36.245151,502.0,513.1983615378999,0.0,0.044565462999999972
2015-10-14 17:21:36.250670,508.0,513.1983615378999,0.0,0.044565462999999972
2015-10-14 17:21:36.257035,509.0,511.26036802059787,0.0,0.044565462999999972
2015-10-14 17:21:36.263467,506.0,511.26036802059787,0.0,0.044565462999999972
2015-10-14 17:21:36.269982,512.0,513.1983615378999,0.0,0.044565462999999972
2015-10-14 17:21:36.276313,515.0,513.1983615378999,0.0,0.044565462999999972
2015-10-14 17:21:36.281774,513.0,518.3133325394391,0.0,0.044565462999999972
2015-10-14 17:21:36.287631,524.0,518.3133325394391,0.0,0.044565462999999972
2015-10-14 17:21:36.294073,530.0,511.93758033009294,0.0,0.044565462999999972
2015-10-14 17:21:36.300497,528.0,506.1856521533372,0.0,0.044565462999999972
2015-10-14 17:21:36.306922,561.0,521.4154608712695,0.0,0.044565462999999972
2015-10-14 17:21:36.313367,655.0,530.1483049648342,0.0,0.044565462999999972
2015-10-14 17:21:36.318701,774.0,530.1483049648342,0.0,0.044565462999999972
2015-10-14 17:21:36.324322,911.0,526.2585757227989,0.0,0.044565462999999972
2015-10-14 17:21:36.329811,992.0,530.1483049648342,0.0,0.044565462999999972
2015-10-14 17:21:36.335149,994.0,530.1483049648342,0.0,0.044565462999999972
2015-10-14 17:21:36.341428,945.0,521.4154608712695,0.0,0.044565462999999972
2015-10-14 17:21:36.347868,667.0,518.3133325394391,0.0,0.044565462999999972
2015-10-14 17:21:36.354309,389.0,518.3133325394391,0.0,0.044565462999999972
2015-10-14 17:21:36.359614,358.0,513.73885307653,0.0,0.044565462999999972
2015-10-14 17:21:36.365970,428.0,502.20008283999994,0.0,0.044565462999999972
2015-10-14 17:21:36.372445,493.0,501.0444241673549,0.0,0.044565462999999972
2015-10-14 17:21:36.378893,521.0,507.8718992499999,0.0,0.044565462999999972
2015-10-14 17:21:36.384507,526.0,507.8718992499999,0.0,0.044565462999999972
2015-10-14 17:21:36.391042,521.0,506.1856521533372,0.0,0.044565462999999972
2015-10-14 17:21:36.396321,508.0,511.93758033009294,0.0,0.044565462999999972
2015-10-14 17:21:36.402732,504.0,513.73885307653,0.0,0.044565462999999972
2015-10-14 17:21:36.409170,509.0,511.93758033009294,0.0,0.044565462999999972
