4
382
382
385
396
407
402
404
421
428
429
426
432
434
431
438
450
447
447
451
454
455
459
464
463
466
462
455
459
464
465
464
465
463
459
458
460
461
465
478
475
470
470
469
469
480
486
484
477
476
480
492
500
494
491
494
499
499
502
505
509
515
515
516
519
522
530
531
522
513
505
497
497
502
496
492
495
504
500
491
486
506
518
522
564
667
814
970
996
996
900
546
349
390
457
494
510
510
508
512
505
492
498
517
517
511
511
512
522
533
545
551
545
538
540
558
577
575
574
590
607
619
633
642
653
667
673
672
672
676
677
673
672
666
650
633
611
579
549
523
499
473
452
441
417
389
369
357
342
320
302
292
282
276
269
266
269
275
280
287
297
308
314
314
311
314
323
333
342
358
368
370
376
386
404
418
429
433
433
439
455
470
470
470
475
477
480
482
479
483
498
500
493
488
484
483
499
508
504
509
514
516
515
519
525
527
522
514
507
503
507
511
510
512
503
497
506
514
515
518
519
519
512
499
494
493
501
503
497
493
493
493
497
499
501
504
513
562
683
828
982
998
998
985
692
392
365
444
505
522
512
495
486
487
487
491
487
481
480
482
480
482
491
495
492
492
494
498
502
506
513
522
531
548
564
568
572
579
583
588
600
609
607
605
602
597
583
566
562
545
512
478
450
436
419
403
397
387
371
366
369
376
382
378
365
362
370
386
392
391
394
407
417
418
419
416
421
429
433
435
429
420
429
434
430
434
442
438
437
446
459
460
458
462
472
476
475
473
471
470
467
469
478
475
470
471
478
482
483
492
504
503
503
508
514
515
513
508
504
506
510
514
517
518
519
520
525
523
513
514
528
528
521
518
526
533
532
529
521
510
504
508
508
510
519
515
512
514
515
517
530
536
525
528
578
696
840
993
998
999
991
700
396
373
455
521
540
532
521
511
513
521
524
524
528
532
530
529
534
541
550
560
561
554
552
562
569
576
579
580
593
623
642
642
646
663
676
681
685
697
701
695
693
684
670
650
639
620
589
561
542
525
510
501
499
496
484
474
475
474
473
476
470
464
469
473
473
474
475
482
485
478
474
483
490
484
479
484
478
473
475
478
471
465
471
481
488
493
493
497
500
495
489
489
490
489
485
478
479
478
476
478
478
475
472
471
481
491
489
487
486
486
490
490
487
483
476
484
497
493
492
489
487
486
484
485
483
479
473
470
467
465
476
481
473
469
474
470
472
483
485
495
503
503
501
504
512
506
493
480
477
478
478
473
465
469
479
482
482
476
476
478
474
493
566
688
840
991
998
997
880
492
295
336
431
478
472
455
446
454
461
459
452
447
452
465
479
486
484
489
490
495
512
528
531
532
540
547
562
582
592
590
589
610
638
643
644
653
669
671
662
658
659
646
628
613
591
565
540
519
500
480
456
449
449
438
426
419
424
431
427
422
421
429
438
440
433
437
455
459
456
454
454
457
460
467
476
476
475
472
471
472
476
487
498
490
482
477
485
488
486
487
486
482
477
471
466
463
467
475
467
462
473
481
474
464
473
481
478
472
476
484
494
493
489
489
486
485
487
484
483
488
491
486
485
489
488
484
480
479
485
485
475
467
466
460
463
470
465
459
456
461
463
459
459
469
473
476
476
477
478
461
457
463
466
470
473
478
482
480
480
489
502
515
515
523
581
684
826
984
997
997
938
588
370
398
464
515
535
536
529
515
507
514
528
530
524
521
535
547
556
560
559
563
574
584
585
589
593
605
615
631
645
651
658
672
690
700
704
701
706
714
712
710
701
688
673
662
646
621
588
560
541
528
506
494
492
484
476
472
473
471
462
466
468
461
456
460
463
461
457
461
464
460
462
464
458
459
462
464
469
468
462
473
482
477
469
469
475
468
471
478
476
467
459
462
465
463
462
453
443
444
449
447
440
445
454
458
447
432
447
468
463
458
456
449
448
452
463
467
464
452
443
443
443
454
462
455
448
460
464
456
457
462
462
464
469
470
471
471
471
470
467
464
462
466
473
471
463
462
460
469
485
481
470
468
478
475
458
447
447
451
451
444
446
465
466
458
454
456
464
465
474
522
642
791
952
996
996
924
567
310
320
400
456
473
464
458
453
453
461
462
457
458
465
471
471
473
484
491
490
490
489
499
513
512
516
528
534
551
570
588
607
623
635
651
673
682
686
690
696
700
689
671
658
639
613
589
571
554
532
511
494
485
483
481
484
473
463
470
476
468
461
464
468
468
463
460
463
469
475
481
483
478
478
480
482
485
481
479
486
483
483
487
488
490
500
501
499
503
505
505
508
504
500
498
498
490
489
491
493
489
480
481
491
496
492
487
486
484
484
488
487
487
488
485
486
488
489
493
489
486
495
503
502
496
494
499
505
506
498
501
523
525
522
520
517
521
530
528
529
535
538
540
543
547
548
543
541
545
544
548
555
553
547
550
552
553
561
569
567
557
547
538
529
535
541
544
546
542
535
532
535
541
546
537
545
604
723
870
996
999
999
983
655
377
372
462
523
535
522
507
505
511
513
498
502
514
519
518
516
519
523
529
536
541
532
532
536
541
549
555
558
573
599
603
601
610
632
650
660
667
669
672
671
666
657
640
629
622
591
555
533
514
498
486
465
452
448
443
440
436
429
429
435
434
425
428
429
420
423
436
442
440
442
444
446
442
439
448
461
450
437
435
440
452
452
447
449
453
455
461
466
468
465
467
469
462
462
473
464
450
445
448
451
454
449
446
447
455
464
464
461
461
458
459
464
464
457
450
446
442
445
465
469
456
449
450
451
446
442
444
441
440
446
448
446
445
443
440
437
444
447
441
439
454
458
448
437
439
440
435
436
448
452
445
446
448
448
449
453
454
454
452
456
458
454
462
474
476
481
485
488
486
480
473
471
469
469
474
472
472
487
496
491
488
491
506
506
528
611
741
894
997
999
998
913
539
365
408
497
549
542
512
491
478
474
472
460
450
454
458
457
457
462
464
473
479
478
486
495
498
507
523
533
552
580
591
601
613
625
636
652
668
679
681
680
676
667
665
670
655
631
606
584
565
553
538
514
501
497
491
479
480
486
479
473
471
471
479
482
474
473
479
488
486
486
485
491
496
491
489
488
484
483
486
486
485
482
478
481
483
489
497
504
499
493
494
503
510
506
495
492
495
492
486
481
482
484
477
464
452
457
459
448
440
439
440
440
429
427
442
447
439
440
439
439
442
446
452
448
441
454
460
447
434
443
457
452
447
451
447
440
444
451
450
451
456
455
459
466
469
476
476
469
477
490
483
480
495
508
508
511
515
508
497
492
498
503
503
515
516
508
511
523
530
532
531
531
540
590
696
835
992
999
999
995
774
461
410
475
532
557
554
544
543
534
532
544
548
547
543
541
538
530
525
516
504
503
501
490
482
477
483
485
491
497
503
513
518
522
530
536
551
572
578
571
562
555
545
542
544
518
483
457
437
414
393
374
359
360
360
350
341
337
337
339
353
371
368
363
365
376
388
394
388
385
390
397
402
405
401
399
401
407
405
409
419
422
423
426
429
435
443
447
450
447
447
453
455
452
451
452
449
444
449
460
457
454
463
473
473
467
465
470
472
470
471
473
484
484
479
475
478
481
485
493
499
494
490
495
494
496
503
512
509
498
505
510
500
503
509
508
513
527
529
519
513
508
498
493
495
503
506
507
508
509
507
508
513
515
525
568
650
755
880
985
991
914
609
347
353
433
476
507
521
525
524
523
526
534
536
534
538
547
557
564
563
574
595
608
610
608
605
615
629
633
636
650
665
674
686
711
728
731
726
727
735
741
738
733
727
717
704
682
655
627
594
564
551
540
520
500
493
492
482
470
472
483
484
477
475
481
485
487
488
493
492
493
506
508
502
499
499
504
516
523
511
504
509
521
526
522
520
522
527
528
528
535
538
536
540
546
551
544
536
542
551
553
551
551
550
549
551
552
555
549
537
541
544
536
528
527
524
517
514
514
513
504
494
488
490
488
485
489
488
480
474
467
454
442
443
449
445
439
437
438
436
436
437
439
439
436
459
532
639
781
921
975
930
686
353
257
315
376
426
441
428
427
440
439
442
447
449
455
464
475
486
496
507
518
532
544
548
546
556
573
587
600
615
622
629
635
656
686
697
700
703
708
716
720
717
712
705
693
670
643
616
593
571
553
534
513
502
494
490
489
482
478
476
471
468
464
463
467
472
473
478
484
478
475
472
474
475
479
484
492
487
476
476
485
481
473
479
492
487
484
480
477
483
495
503
502
498
488
481
476
473
467
458
447
435
430
422
415
417
412
399
394
401
398
388
388
388
381
379
382
372
365
371
373
376
377
377
378
383
388
388
391
391
398
401
403
411
413
412
419
436
437
428
417
412
416
419
423
425
427
431
431
431
440
449
451
455
500
626
778
936
996
994
894
523
282
309
396
452
469
462
450
448
462
474
470
468
473
474
479
490
496
503
508
508
510
518
523
520
521
533
550
568
576
575
585
604
617
628
638
651
664
671
668
668
669
664
650
633
614
594
569
541
514
503
491
475
458
451
457
457
457
451
443
442
442
441
437
431
435
446
446
440
445
454
459
457
458
467
469
463
459
460
459
457
460
459
462
463
464
469
477
476
478
488
487
481
483
488
482
473
475
472
464
461
462
464
463
469
471
465
464
469
474
482
480
478
476
475
473
473
472
470
472
474
478
479
478
479
479
486
486
483
486
491
498
499
491
487
489
499
502
492
485
499
513
517
517
514
511
503
494
484
481
488
486
481
481
481
481
480
487
491
489
479
485
550
683
828
981
998
997
938
567
316
332
428
495
504
486
472
473
483
483
480
488
493
493
499
509
512
516
525
531
540
548
547
545
544
548
567
585
593
594
606
619
629
635
649
676
680
675
675
675
673
667
654
641
620
595
573
547
517
504
494
473
466
466
461
456
455
460
468
473
472
467
467
469
472
480
484
488
490
484
485
493
494
493
494
493
488
489
485
487
495
496
498
501
501
504
506
508
517
524
518
505
506
512
512
505
499
499
493
491
495
495
496
504
504
495
497
508
511
509
504
504
511
510
505
497
492
493
502
505
507
505
501
502
505
499
498
504
502
497
499
505
504
499
497
500
500
496
497
497
496
495
496
491
493
503
510
500
491
495
509
506
495
487
494
503
501
508
512
503
500
516
534
538
533
542
551
550
549
547
540
533
532
540
542
543
539
542
542
537
546
557
555
580
672
810
976
999
1000
998
851
499
395
458
530
553
543
530
526
533
542
534
525
526
535
542
540
538
544
549
552
551
547
551
551
551
552
551
559
571
580
591
599
609
624
636
648
654
659
665
661
649
644
640
629
611
585
564
546
523
500
485
473
463
453
440
427
425
431
426
420
417
417
415
412
408
406
409
417
413
410
418
420
427
430
425
423
421
418
425
431
429
434
441
439
443
449
452
450
456
458
457
463
461
455
460
462
461
463
462
455
457
465
468
464
466
478
477
469
470
476
481
477
474
474
469
465
472
479
479
481
478
475
487
496
488
488
496
500
496
495
501
503
502
498
494
509
519
510
497
501
511
511
513
515
510
506
509
512
511
505
504
506
508
509
507
513
522
519
510
508
515
525
525
523
524
522
509
493
487
494
499
500
496
494
497
496
492
502
520
518
523
564
654
797
972
997
997
922
568
344
365
426
463
492
509
501
485
480
486
484
481
496
507
502
501
511
523
528
525
525
532
538
539
541
552
568
573
583
600
613
618
618
623
638
652
654
652
653
655
652
643
629
624
613
584
558
533
512
494
476
460
450
441
433
420
419
424
415
404
405
409
407
402
402
406
417
427
417
408
402
402
409
412
406
403
414
423
427
420
418
424
425
426
428
436
443
443
447
448
435
437
452
455
452
454
453
445
444
459
464
462
462
461
459
459
471
471
461
468
477
479
469
464
472
478
479
483
482
470
463
472
495
496
485
481
479
482
491
500
494
486
486
493
494
492
502
507
501
500
504
516
526
522
510
496
490
497
495
490
492
493
500
503
498
503
510
516
513
524
575
670
801
932
991
991
877
528
319
357
436
484
508
517
522
515
513
515
513
512
517
526
540
547
548
550
554
571
584
578
575
582
591
593
601
618
623
627
642
656
669
680
686
686
693
697
692
692
690
680
672
660
635
602
574
554
538
512
484
467
462
459
452
444
431
438
452
450
440
438
437
435
437
442
447
450
457
457
452
458
470
462
464
471
472
468
467
472
474
479
482
485
479
476
481
481
479
474
478
484
477
471
478
482
480
480
479
477
479
478
476
479
486
487
480
477
480
486
482
475
476
476
475
475
473
474
475
479
480
478
473
474
482
487
483
480
483
487
477
476
490
489
484
494
503
501
495
496
503
503
490
480
478
477
480
489
492
486
486
484
486
492
498
490
501
571
695
839
981
996
996
907
537
303
329
412
470
488
485
477
473
480
476
476
482
482
483
489
497
500
506
515
515
514
520
519
518
528
538
552
557
559
569
587
602
614
624
636
652
659
655
653
663
671
656
635
617
596
584
557
521
498
475
450
435
427
420
403
400
405
408
411
406
398
395
397
396
393
388
393
398
402
404
404
407
408
403
410
424
425
420
418
417
419
422
429
437
432
431
441
454
459
458
457
457
458
461
460
457
459
461
457
456
453
452
454
459
458
455
458
458
455
472
484
478
474
475
477
475
472
479
483
471
468
479
484
478
473
481
494
495
490
491
493
493
486
484
490
491
489
488
490
494
494
492
491
491
498
499
503
515
514
502
501
506
502
496
489
492
505
507
505
501
496
500
511
518
505
520
588
711
869
995
998
998
948
582
338
359
454
510
515
508
506
498
500
504
505
503
504
512
527
529
527
529
525
535
547
546
549
549
551
560
568
579
596
606
617
625
629
647
665
671
679
710
720
711
695
679
667
657
639
607
568
541
526
510
483
463
457
457
449
446
444
439
436
441
447
450
440
431
436
449
446
438
435
435
445
452
443
444
444
437
433
436
437
445
440
438
450
453
447
446
455
468
476
470
473
474
471
471
473
471
471
472
464
461
464
465
466
465
474
479
478
477
476
481
479
478
484
489
492
489
486
491
499
492
486
495
501
504
504
499
500
505
508
499
496
509
506
502
507
510
509
505
507
512
514
514
512
506
500
515
534
526
519
525
522
513
506
500
499
498
500
497
487
484
493
495
496
496
492
491
522
615
751
909
997
997
995
811
432
319
385
458
493
501
494
481
476
481
482
481
486
487
498
505
502
506
516
524
521
522
531
536
528
521
532
559
568
569
577
594
610
622
636
651
657
665
672
669
665
665
661
648
625
602
584
563
542
523
494
472
463
463
455
443
438
435
429
426
434
440
431
419
422
428
437
444
447
448
445
448
455
460
462
456
447
451
456
460
462
452
453
467
468
464
462
476
488
485
484
486
479
475
480
487
486
474
466
463
469
475
471
472
478
479
478
474
468
474
485
479
472
471
476
478
477
482
484
480
482
486
480
479
482
479
485
490
481
478
481
486
487
485
487
491
488
488
492
486
481
493
507
504
494
494
499
504
509
511
500
487
480
480
482
480
475
476
484
490
491
486
483
488
489
503
554
656
796
965
998
999
988
686
368
345
427
492
512
504
494
487
481
479
479
482
487
492
493
498
509
517
523
522
522
525
527
530
535
541
545
553
569
584
591
599
611
624
628
637
650
652
652
651
648
645
633
618
601
580
551
518
495
485
475
459
444
439
433
426
423
421
422
426
428
427
427
422
428
438
440
433
436
443
447
452
450
452
454
452
454
458
459
461
465
465
463
472
475
471
474
473
475
482
484
476
473
478
483
480
476
477
476
473
472
473
479
486
484
481
485
490
494
493
491
488
487
485
482
483
483
487
486
477
475
480
484
484
485
485
485
479
475
485
497
496
494
500
504
491
480
479
479
478
483
488
490
492
486
490
499
497
501
508
526
573
658
777
909
988
988
848
496
299
351
433
478
499
509
506
502
503
497
495
500
510
527
533
524
526
540
551
557
560
567
571
571
576
583
588
595
601
615
630
638
649
659
664
672
680
679
681
688
682
666
655
646
632
603
582
561
531
500
479
469
464
456
446
433
427
444
454
444
438
441
446
453
460
463
459
454
456
457
457
463
470
469
468
472
474
478
485
484
480
484
481
477
481
488
489
483
484
494
494
488
488
493
497
505
504
494
492
487
498
512
510
501
501
509
517
514
506
505
505
513
526
523
520
515
506
510
499
488
489
487
484
489
495
491
490
489
488
486
494
511
518
546
627
737
870
975
988
879
543
294
324
411
447
481
508
510
502
494
493
494
497
503
511
520
521
522
530
534
538
542
546
550
554
561
569
576
579
581
588
601
605
617
640
646
639
641
645
644
642
639
633
620
600
587
562
533
512
498
478
455
440
437
435
427
428
426
419
411
416
429
426
422
424
430
433
435
432
434
435
442
449
445
444
455
459
454
459
468
460
454
463
472
466
459
461
468
470
467
462
462
464
471
464
464
470
469
471
475
475
474
477
479
480
482
482
483
476
472
480
484
482
478
483
493
497
498
500
497
489
476
471
472
480
484
476
466
461
468
481
483
485
494
487
505
583
705
854
993
997
995
850
462
295
347
416
459
480
488
486
474
464
473
482
483
488
485
489
506
507
504
506
512
524
535
529
524
536
551
556
568
586
592
595
610
629
639
647
648
648
658
665
665
656
639
622
613
596
560
520
500
488
472
452
435
422
416
421
424
418
414
414
419
418
412
407
410
419
415
416
424
420
415
421
430
424
418
425
431
427
423
420
426
433
431
439
443
444
447
450
456
463
468
462
458
459
458
454
446
449
459
467
458
449
452
459
464
468
466
477
495
490
490
489
480
484
491
483
483
487
487
480
490
507
505
499
507
511
498
483
477
482
487
482
481
486
487
481
480
481
483
489
488
484
513
606
741
906
997
998
995
819
429
283
341
429
476
478
464
457
456
457
457
457
464
477
479
481
487
488
496
513
519
513
510
518
522
524
531
543
556
563
576
584
587
601
629
650
652
645
644
653
659
651
646
636
614
584
555
527
504
492
471
447
426
416
416
421
424
419
412
409
411
409
415
418
424
439
441
438
437
430
433
443
445
446
447
443
434
436
445
450
448
439
445
456
461
457
464
478
479
474
470
475
481
483
480
469
470
479
476
466
466
472
470
468
472
477
477
480
482
481
483
488
489
490
487
485
492
494
489
489
499
501
497
490
495
506
502
502
509
514
514
520
528
523
517
513
498
492
494
498
501
497
492
490
493
499
495
498
503
500
525
625
770
926
997
998
996
822
432
319
389
470
500
497
481
470
472
474
468
470
473
476
482
493
496
498
500
504
511
516
517
521
530
534
544
550
554
560
573
600
609
613
621
643
664
666
660
662
667
659
645
633
617
589
558
531
507
490
479
465
452
439
432
433
431
425
428
428
417
413
427
433
424
413
422
438
443
439
448
454
458
459
457
461
455
455
465
472
472
469
465
473
481
486
490
488
487
494
499
501
498
497
497
497
505
501
487
478
482
488
490
489
494
498
493
489
492
499
512
513
506
509
505
506
512
512
506
509
517
513
498
494
514
518
499
482
487
493
487
485
494
494
487
485
497
505
506
505
501
500
501
505
502
496
505
511
505
500
487
475
483
490
486
487
490
492
495
499
498
498
500
498
505
552
659
799
957
998
1000
996
769
415
355
436
506
531
522
501
482
486
510
507
486
485
493
498
503
511
513
510
513
523
523
520
530
544
543
537
539
557
574
584
596
606
615
623
631
642
658
661
654
644
635
634
624
606
579
553
529
499
476
472
460
439
421
418
425
424
415
410
417
419
415
415
416
419
420
430
438
434
431
427
433
445
446
439
440
441
435
435
434
441
450
449
452
457
465
463
455
457
464
454
442
434
439
448
443
436
439
434
430
433
441
437
431
424
425
445
453
445
442
445
453
461
461
463
473
481
483
477
477
479
482
493
498
494
491
496
504
503
499
503
510
512
504
503
510
506
515
530
523
509
504
505
503
500
498
498
502
502
508
519
514
505
509
524
526
540
606
715
853
975
993
977
736
404
333
397
460
500
515
519
518
514
514
518
521
524
527
529
527
539
557
552
544
552
566
571
570
569
579
590
600
606
612
614
620
637
660
666
662
664
674
676
674
676
677
664
644
620
596
571
539
505
485
479
470
447
430
427
428
422
415
417
427
428
426
431
439
444
444
436
438
447
447
449
457
455
453
457
464
469
467
462
461
467
473
468
469
474
471
464
468
473
473
474
477
479
471
466
479
483
479
480
478
471
473
487
494
483
466
470
482
485
485
488
482
478
477
480
483
484
481
478
482
488
492
501
503
498
492
472
471
489
491
484
479
479
482
478
472
476
482
492
495
501
543
631
753
882
967
984
873
545
308
336
418
469
504
521
519
509
507
509
514
515
518
526
538
544
550
559
568
563
565
580
585
587
591
600
611
622
627
632
645
665
676
676
687
705
702
698
693
691
697
693
671
645
621
600
573
539
510
490
474
456
442
443
444
435
425
419
419
419
415
412
412
414
423
428
422
416
418
425
423
420
426
423
421
430
433
425
425
432
439
444
444
447
455
455
450
446
455
459
456
460
462
460
455
454
459
460
461
465
462
456
461
469
468
463
466
469
471
477
480
469
462
468
478
487
484
482
483
487
491
493
496
502
506
497
477
471
477
480
481
482
480
476
475
479
490
487
485
487
494
539
650
798
955
997
997
964
644
340
318
386
439
467
472
464
456
463
460
454
453
458
463
469
479
489
488
481
486
500
506
515
521
527
529
533
546
561
567
583
592
598
614
630
638
642
642
643
649
652
639
622
607
590
567
537
505
479
464
449
430
421
411
405
411
408
399
391
390
399
402
399
397
398
407
412
411
412
411
419
428
419
411
419
425
424
429
432
421
423
434
434
437
448
450
449
456
459
461
468
467
462
458
456
454
452
448
445
445
448
449
445
443
453
461
461
462
466
469
472
472
470
473
479
483
485
482
480
479
479
487
492
492
490
488
486
485
489
493
496
501
498
492
496
507
506
505
515
528
529
516
502
498
509
515
505
499
502
507
508
499
496
505
511
505
508
569
689
822
962
998
998
995
782
405
310
391
475
507
504
493
486
483
479
475
475
490
506
504
500
505
511
515
521
531
537
540
540
540
542
548
556
570
585
591
602
617
633
652
667
672
676
682
677
667
668
663
643
620
599
573
543
514
489
482
483
462
440
430
433
430
419
419
429
436
429
421
422
422
426
431
430
434
444
442
439
440
441
438
439
450
444
438
441
443
446
455
458
457
463
466
470
472
474
476
471
468
476
477
469
472
475
474
477
476
469
465
470
478
477
476
475
476
488
490
486
485
489
484
483
487
485
481
476
484
492
488
486
486
480
485
492
486
486
491
493
489
482
477
480
487
483
487
493
484
481
488
491
489
493
502
501
501
509
517
516
520
523
513
504
497
501
505
503
499
504
507
504
505
510
516
518
515
515
544
634
779
949
998
999
998
898
503
337
401
489
525
517
498
494
498
500
503
506
507
509
513
515
522
535
549
548
545
545
543
544
553
563
567
570
579
590
598
614
632
641
655
674
687
689
680
678
690
690
676
664
651
630
602
569
544
525
503
485
472
462
454
445
442
445
440
433
429
434
439
440
442
442
444
449
450
454
454
454
464
461
454
452
458
462
456
455
460
469
464
454
456
471
476
476
481
482
486
489
479
481
489
487
481
474
474
476
477
472
476
489
494
488
485
485
490
495
491
489
493
488
490
496
496
488
484
493
498
501
501
501
504
506
510
504
498
501
503
505
504
500
496
498
502
500
502
501
500
506
514
507
504
506
509
509
514
517
509
507
524
534
532
530
528
519
508
506
505
502
505
506
506
500
497
505
511
508
513
509
512
559
673
816
979
998
999
992
721
382
343
431
499
512
493
485
489
483
478
476
474
474
476
484
495
500
498
501
508
512
515
520
531
539
541
544
554
572
589
595
604
614
625
642
655
661
665
668
670
668
659
642
635
626
603
576
548
522
501
481
464
453
451
449
441
432
426
435
443
441
432
435
445
448
448
451
457
459
459
475
502
523
538
557
567
572
572
582
594
594
588
585
575
563
559
557
548
527
491
485
498
483
461
449
439
429
423
427
429
420
417
424
433
427
420
429
448
459
460
454
440
435
454
472
458
440
447
460
458
448
443
449
454
448
444
452
465
479
479
469
473
498
517
506
488
497
519
517
505
502
512
519
524
530
535
529
525
523
516
504
500
503
502
494
489
488
484
480
477
479
489
488
485
523
613
732
882
986
989
875
538
286
291
373
435
466
472
468
465
462
451
444
442
441
453
477
486
481
488
506
524
542
553
553
550
559
577
577
574
577
599
639
665
669
668
691
729
747
805
922
985
819
247
105
609
964
815
538
391
295
324
554
879
1000
1001
1002
1002
1001
1001
999
994
859
650
541
505
488
463
450
459
465
455
443
448
479
520
525
518
538
550
551
537
497
383
210
0
0
0
0
0
0
0
94
683
963
544
179
163
237
337
576
837
997
1001
1003
1003
1003
1003
1003
1002
1000
770
383
261
346
460
530
548
555
579
589
570
555
558
597
393
0
0
0
0
0
0
0
258
724
533
0
0
0
0
0
0
0
0
58
415
975
1001
1002
1002
1003
1003
1003
1003
1003
891
339
79
127
297
410
465
499
504
468
412
363
314
257
219
125
0
0
0
0
0
0
0
0
0
0
0
52
314
304
0
0
0
0
0
0
0
21
304
859
1001
1002
1003
1003
1003
1002
995
712
336
213
285
387
421
428
467
525
575
585
560
496
416
349
311
295
285
284
274
252
227
241
369
311
104
0
0
0
0
0
130
449
171
0
0
0
0
0
0
0
0
65
466
997
1001
1001
999
912
662
539
551
562
517
456
436
462
507
532
550
559
540
509
468
436
399
340
272
211
154
102
93
111
175
571
789
140
0
0
0
0
0
94
453
396
0
0
1
85
219
409
742
998
1000
1001
1002
1003
1003
1003
1003
1000
690
221
45
48
148
318
465
553
600
664
773
901
996
998
999
984
629
270
231
330
441
487
489
483
483
489
485
486
517
559
578
588
606
642
665
658
644
642
645
655
674
672
653
651
664
656
641
637
628
597
566
551
540
544
545
536
536
541
541
554
559
542
523
523
525
518
515
515
512
504
525
578
601
605
633
667
690
684
671
668
641
616
607
590
567
544
524
518
510
498
485
474
474
492
512
518
508
496
491
478
462
440
444
466
473
456
431
410
402
409
420
424
401
371
342
337
353
343
330
319
311
311
307
297
282
273
259
244
223
196
171
164
166
138
100
72
55
40
22
14
20
26
21
9
0
0
4
28
66
79
72
74
86
98
108
108
99
97
102
117
135
148
170
198
212
240
335
483
622
793
925
911
706
367
242
331
428
476
485
468
441
434
431
424
408
389
375
365
349
341
341
344
335
312
286
262
253
250
239
231
227
225
227
238
262
294
319
315
321
351
367
373
378
393
403
398
364
351
341
324
312
273
258
266
267
275
293
311
325
345
366
383
395
409
429
445
458
472
495
511
513
531
544
545
539
539
547
560
566
573
580
592
596
599
601
602
601
617
640
640
636
640
635
628
626
618
606
599
589
585
588
585
572
563
565
563
553
541
532
518
510
508
499
504
527
533
527
530
553
570
560
544
551
569
583
577
581
599
618
633
655
679
699
726
748
769
843
967
998
1000
1002
1002
998
876
666
614
666
721
733
724
713
705
707
714
717
716
717
720
725
733
732
732
733
728
723
721
718
713
712
717
719
723
734
750
767
785
788
776
785
801
788
771
767
761
748
738
719
687
657
632
603
577
572
571
563
555
553
548
549
557
554
544
538
539
539
541
544
548
559
572
565
563
573
566
544
531
526
525
528
539
549
555
550
548
564
578
580
580
581
584
587
589
591
591
584
576
569
564
564
568
559
548
554
559
554
553
552
556
554
545
542
541
535
527
530
547
558
545
548
567
560
540
533
538
540
535
534
534
537
533
525
517
527
547
548
549
596
702
829
973
997
998
987
697
379
355
429
488
513
516
509
500
501
507
509
505
505
514
522
526
527
526
532
538
538
539
540
539
535
541
555
567
581
591
600
618
641
660
673
682
692
698
699
692
682
665
644
616
576
540
504
474
449
428
410
395
380
375
374
362
358
361
363
354
355
362
359
364
380
387
391
400
405
406
416
429
427
421
422
425
425
420
413
416
429
435
438
444
449
453
459
472
475
475
478
480
472
462
458
456
449
436
430
432
430
427
425
429
430
424
422
424
426
429
427
421
417
415
418
425
420
418
424
427
429
430
441
448
448
448
458
472
477
477
487
492
487
475
467
464
469
475
477
483
487
485
477
478
490
494
483
493
568
700
847
987
996
994
871
494
291
337
426
467
465
454
456
468
462
450
459
462
455
452
461
469
475
479
483
485
481
478
481
485
479
475
494
523
534
539
555
572
586
606
626
636
645
654
664
666
657
646
629
602
578
562
538
509
485
466
453
447
444
432
425
429
432
429
428
424
427
434
432
429
429
433
438
445
444
447
450
454
459
457
455
452
449
447
447
447
451
451
449
452
470
480
474
476
482
485
487
495
495
485
475
481
485
472
463
460
465
463
459
454
462
480
487
483
488
497
503
513
519
521
522
521
520
525
528
523
526
530
527
520
517
519
521
516
513
515
507
503
503
503
503
496
500
513
516
509
501
504
514
518
512
509
525
531
531
528
520
512
504
505
506
499
495
498
505
506
504
500
498
501
509
501
520
599
727
867
993
998
998
949
578
319
332
433
493
500
488
479
480
485
477
465
480
498
493
488
493
505
509
509
516
522
524
522
529
537
540
551
565
568
575
588
608
624
633
645
653
669
686
692
688
677
668
666
649
619
585
559
542
517
495
476
462
458
454
446
440
438
439
438
435
433
432
432
426
424
440
447
435
421
431
437
432
425
425
422
414
412
416
416
414
409
407
423
435
437
441
452
464
470
480
486
480
485
495
476
458
459
473
474
465
461
467
474
476
476
479
475
472
479
489
484
482
481
483
489
489
490
487
489
498
502
499
496
496
500
503
498
494
498
502
500
501
504
501
498
501
503
500
507
500
495
495
495
496
490
490
493
494
505
510
509
506
500
507
513
515
520
526
529
532
526
517
505
506
511
509
506
506
505
501
498
503
501
496
498
504
535
618
741
910
998
998
998
867
473
318
384
477
511
501
488
488
483
481
483
482
484
491
494
496
509
519
527
524
521
528
535
535
533
533
537
544
554
570
589
603
616
618
623
634
654
668
671
669
670
667
657
651
639
613
582
560
538
508
489
477
465
458
455
449
448
445
443
443
446
449
440
437
440
437
441
445
450
448
449
455
462
464
462
456
448
443
453
457
454
460
457
453
455
461
467
471
473
477
477
471
466
464
468
467
459
455
456
448
443
443
439
435
434
440
445
443
451
465
464
453
456
470
479
476
470
472
476
482
483
476
479
489
486
477
481
480
474
475
475
476
480
475
474
473
469
468
472
479
486
485
479
481
498
504
497
495
491
492
498
503
506
507
508
513
523
523
519
520
518
508
498
497
499
501
503
501
499
501
501
506
524
522
515
561
673
821
985
998
999
989
695
386
351
422
487
509
504
501
499
497
499
501
499
503
513
516
518
523
532
534
533
532
538
546
554
558
561
568
572
584
601
615
630
642
659
673
669
661
659
657
652
649
655
656
650
645
631
604
579
559
542
523
510
502
492
483
476
460
445
445
449
443
435
433
430
427
439
442
434
432
434
432
443
459
449
438
439
446
450
449
460
471
467
463
460
463
467
467
469
474
473
469
468
465
462
465
469
465
459
458
463
457
454
466
471
465
460
461
470
477
476
474
479
477
476
481
481
485
483
477
485
492
492
487
485
489
496
495
499
506
503
501
502
503
496
492
501
512
522
529
521
516
519
508
500
493
495
511
512
502
489
491
497
500
501
502
510
536
595
686
821
950
993
973
722
380
309
385
446
488
505
502
487
476
471
475
498
514
511
507
511
516
508
504
513
517
518
524
526
523
518
523
543
557
562
568
581
601
615
626
639
651
649
644
649
646
641
632
620
604
578
544
512
494
479
460
443
421
401
399
416
416
401
395
395
400
409
411
406
411
423
426
425
427
440
443
437
439
446
454
458
458
462
468
470
462
463
469
477
483
479
472
473
482
483
471
470
476
479
474
468
471
476
474
483
492
492
487
486
485
489
497
505
507
511
508
508
511
508
504
504
505
505
507
508
512
510
509
498
488
490
493
490
498
508
504
498
495
500
505
522
533
532
562
642
760
904
990
992
907
580
329
352
433
479
506
520
518
510
509
511
515
519
518
518
529
532
529
526
528
533
527
519
530
545
548
549
557
569
581
589
603
630
646
648
654
665
672
673
672
675
674
660
641
631
604
571
539
510
482
454
429
421
424
416
408
406
396
390
403
407
400
397
395
399
407
417
428
427
420
425
425
418
425
436
440
440
440
441
446
456
457
457
457
458
462
465
466
464
464
464
467
470
467
461
458
459
457
459
460
457
457
457
456
462
465
464
458
456
461
473
486
495
490
486
499
512
513
507
510
516
519
525
532
533
523
516
513
512
501
500
511
510
508
506
505
500
508
535
554
550
579
679
819
979
997
999
996
825
459
359
411
475
514
523
523
525
530
536
537
539
542
543
553
566
562
555
561
565
560
556
555
559
562
555
550
555
569
587
610
631
649
659
668
677
683
693
694
683
675
659
631
612
592
560
527
496
469
440
416
403
389
381
379
369
359
359
358
351
352
361
357
346
352
367
367
363
376
387
390
398
401
395
394
403
416
414
416
434
443
451
449
456
471
485
488
489
488
488
497
499
478
465
478
484
475
462
454
458
469
481
482
472
464
458
467
478
476
469
470
487
494
489
477
466
469
472
472
474
473
479
482
481
490
503
509
503
499
506
505
495
486
475
478
496
504
501
499
496
499
508
523
524
524
567
680
818
968
997
998
992
752
416
347
411
491
537
533
514
508
507
505
506
510
514
518
521
527
530
535
537
539
547
572
587
583
578
576
586
599
607
619
629
638
643
646
657
686
716
732
728
726
729
732
727
711
690
663
635
603
569
537
519
510
501
488
467
451
451
456
447
439
439
433
423
412
413
433
447
441
429
425
427
430
435
435
428
421
420
429
431
423
417
422
445
459
456
448
445
449
464
473
466
453
452
466
481
479
470
464
455
450
457
469
469
462
457
455
455
461
463
458
455
469
474
470
468
468
464
470
486
486
474
466
472
478
475
477
490
491
467
469
516
549
549
527
508
500
495
495
498
492
483
482
485
493
492
472
456
451
448
441
472
575
722
905
997
998
997
858
500
377
428
494
522
507
475
449
433
420
411
415
424
441
464
493
519
537
556
579
599
609
610
597
574
560
556
564
570
574
585
601
622
638
639
629
623
635
636
614
609
613
582
548
537
523
487
444
423
463
506
267
0
0
0
0
0
0
0
238
738
891
887
806
754
964
1001
1003
1003
1003
1003
1003
1003
1003
1003
1002
999
798
351
113
104
226
374
463
499
522
535
537
529
510
508
567
663
750
719
566
436
359
308
267
222
214
399
288
0
0
0
0
0
0
0
0
0
0
0
0
0
60
323
609
736
917
998
996
944
827
883
997
998
993
932
753
557
407
281
196
242
353
446
522
595
675
675
603
519
441
371
339
348
352
324
311
309
307
316
323
313
311
322
317
287
292
366
461
581
713
768
626
243
0
0
0
0
0
0
0
0
25
223
448
499
472
466
517
588
629
638
637
644
670
698
692
672
680
712
737
738
734
750
775
791
791
815
838
821
797
800
797
792
779
768
773
777
775
766
763
767
754
712
666
633
608
576
548
544
529
490
467
465
445
414
392
389
381
372
378
402
424
452
459
476
525
560
587
596
587
583
578
552
520
517
505
479
464
476
494
499
489
483
492
503
503
514
538
546
540
528
531
537
527
511
493
511
534
541
539
548
576
620
665
684
686
692
712
745
754
740
715
694
688
675
667
668
664
647
642
636
634
625
610
602
609
606
592
598
611
617
622
617
608
604
597
594
598
586
573
574
601
684
825
990
998
999
992
715
418
396
477
536
556
543
519
502
496
500
500
492
484
486
510
528
523
509
498
485
474
477
480
476
479
484
492
499
511
546
581
607
620
621
618
614
612
624
631
614
593
578
562
538
520
496
455
413
384
363
349
345
340
304
243
185
145
103
46
0
0
0
0
0
0
0
0
0
0
0
0
0
0
0
0
0
0
0
0
0
0
0
0
0
0
0
0
0
0
0
0
0
0
0
0
0
0
0
0
0
0
0
0
11
64
105
124
137
165
191
213
228
253
288
306
307
318
338
365
384
405
424
439
452
470
492
512
522
531
543
551
559
572
574
585
609
610
603
609
614
611
610
614
618
622
631
643
649
650
655
658
653
650
653
660
649
637
672
756
889
995
998
996
855
464
303
359
419
460
491
500
483
472
468
465
468
471
461
457
467
470
466
468
472
474
475
476
473
474
481
495
515
520
526
544
560
572
587
603
613
619
618
617
630
635
608
578
551
533
518
488
448
415
398
392
383
373
367
364
362
372
385
389
391
394
400
407
410
410
413
419
419
414
414
412
407
404
417
422
411
403
409
420
430
433
423
427
435
433
434
442
456
461
451
449
458
466
464
456
463
461
449
439
431
432
438
442
448
448
451
466
483
478
473
477
484
495
492
489
489
492
499
496
480
479
486
485
478
482
506
513
511
511
506
501
494
490
501
506
498
486
488
504
509
502
499
497
502
507
510
561
676
822
977
997
997
945
595
329
341
430
494
502
489
493
495
486
480
479
480
488
495
496
499
502
503
505
501
494
497
500
495
486
484
488
500
516
532
552
567
566
581
610
626
628
632
636
635
624
608
593
572
542
509
482
459
431
409
399
402
396
382
388
390
382
386
392
398
398
393
393
396
394
392
396
400
406
406
396
396
407
416
412
404
409
426
435
437
431
435
463
481
479
484
509
524
523
525
536
543
547
553
566
572
570
568
572
568
567
575
585
588
601
605
599
604
616
618
617
624
623
620
616
616
617
616
621
622
616
619
628
626
622
618
620
628
628
627
630
631
634
639
630
625
625
630
637
632
621
620
631
640
647
646
637
626
619
620
620
618
619
612
606
602
598
599
598
597
598
596
589
619
722
870
995
999
1000
999
920
550
391
435
525
561
554
547
542
536
533
528
532
541
548
545
549
555
556
560
571
571
564
558
558
576
582
575
585
604
613
622
638
653
665
681
691
692
698
712
711
704
695
684
675
665
648
621
585
559
542
524
516
514
499
487
488
484
486
486
486
481
475
469
469
468
468
471
471
468
475
480
480
480
480
489
496
491
481
481
486
488
493
483
473
471
480
479
476
479
479
475
468
464
467
465
460
460
456
449
450
450
446
443
447
446
441
438
433
428
428
432
437
437
427
421
429
432
428
426
426
432
438
428
413
428
447
434
422
425
423
423
429
436
435
426
423
427
435
435
426
420
416
415
426
438
435
428
427
431
422
422
424
413
410
411
417
426
425
420
420
420
418
428
430
451
522
643
804
970
997
995
870
472
268
308
402
463
474
462
455
456
459
466
463
462
469
481
492
496
499
502
510
522
525
526
537
539
537
546
559
571
580
593
610
625
638
658
675
680
681
683
689
695
689
681
664
638
614
595
574
543
509
485
477
469
457
460
463
453
442
440
448
456
462
453
441
441
445
451
452
448
449
459
460
453
455
469
469
459
458
470
475
478
480
476
480
491
500
502
503
501
498
492
498
502
494
488
490
500
501
490
490
499
504
500
493
499
521
522
510
508
513
508
501
507
508
513
518
518
513
511
511
499
493
500
507
501
493
492
498
507
508
514
519
517
511
511
516
520
527
530
522
517
517
503
487
489
507
515
506
500
497
493
492
505
510
516
520
524
565
666
799
945
995
996
928
583
349
380
452
495
524
535
530
520
515
514
521
525
528
527
525
532
532
522
516
512
516
515
514
520
525
527
531
538
552
574
594
600
615
630
638
641
648
660
670
672
659
648
645
647
627
593
562
537
513
496
484
470
456
447
443
444
447
442
441
445
434
437
444
449
456
459
457
461
467
464
462
459
455
456
468
472
467
467
479
487
485
480
482
486
483
486
492
497
493
486
484
490
491
491
494
499
495
491
491
492
496
493
489
505
518
509
499
502
512
514
513
511
511
514
514
511
515
523
539
548
543
532
518
507
501
501
502
501
496
494
496
492
487
497
518
517
518
517
519
563
661
796
950
995
995
910
553
303
318
407
468
487
489
484
475
479
492
501
506
513
517
517
531
546
551
554
556
562
574
587
599
605
610
611
625
651
684
726
764
795
816
836
854
866
876
883
875
873
862
844
839
815
764
713
671
643
630
621
616
612
610
606
600
592
601
612
599
585
589
600
601
598
602
606
609
613
612
611
615
619
619
612
616
616
617
612
612
613
622
621
613
608
607
605
601
604
599
590
583
572
561
550
542
544
546
539
529
529
528
521
524
523
525
529
525
520
514
517
527
516
508
519
523
512
500
490
493
501
501
492
486
480
483
489
481
477
476
471
473
475
483
487
483
475
463
457
456
450
446
453
452
445
445
445
447
447
450
455
446
455
526
659
812
958
995
991
842
461
254
277
351
404
423
412
396
388
387
387
379
379
384
387
392
399
403
408
417
429
435
446
453
449
454
472
494
503
510
523
538
558
572
583
592
602
607
615
621
620
611
602
588
573
554
527
498
467
445
431
420
403
385
388
389
383
382
383
381
380
382
382
386
388
386
389
382
378
387
403
401
389
388
395
399
391
381
387
399
401
402
397
405
419
420
421
424
423
413
413
421
416
409
412
418
415
417
418
419
426
430
429
428
438
454
461
457
455
462
471
471
467
473
482
484
475
469
469
464
461
479
484
474
470
479
487
488
486
485
490
496
494
487
477
485
508
518
511
509
509
502
495
483
483
491
492
489
488
492
505
512
512
504
503
511
514
541
637
774
930
997
998
997
848
457
313
370
456
503
509
488
475
477
474
469
481
485
479
478
487
495
495
494
487
485
481
479
475
473
482
503
524
536
547
560
576
595
623
641
645
655
666
665
663
662
663
656
626
597
577
555
533
509
492
478
464
455
449
441
440
451
455
441
429
422
419
420
418
416
420
431
434
429
426
435
445
447
436
425
421
423
426
432
430
423
425
442
451
441
