timestamp,value
int,int
T,
4,382
5,382
6,385
7,396
8,407
9,402
10,404
11,421
12,428
13,429
14,426
15,432
16,434
17,431
18,438
19,450
20,447
21,447
22,451
23,454
24,455
25,459
26,464
27,463
28,466
29,462
30,455
31,459
32,464
33,465
34,464
35,465
36,463
37,459
38,458
39,460
40,461
41,465
42,478
43,475
44,470
45,470
46,469
47,469
48,480
49,486
50,484
51,477
52,476
53,480
54,492
55,500
56,494
57,491
58,494
59,499
60,499
61,502
62,505
63,509
64,515
65,515
66,516
67,519
68,522
69,530
70,531
71,522
72,513
73,505
74,497
75,497
76,502
77,496
78,492
79,495
80,504
81,500
82,491
83,486
84,506
85,518
86,522
87,564
88,667
89,814
90,970
91,996
92,996
93,900
94,546
95,349
96,390
97,457
98,494
99,510
100,510
101,508
102,512
103,505
104,492
105,498
106,517
107,517
108,511
109,511
110,512
111,522
112,533
113,545
114,551
115,545
116,538
117,540
118,558
119,577
120,575
121,574
122,590
123,607
124,619
125,633
126,642
127,653
128,667
129,673
130,672
131,672
132,676
133,677
134,673
135,672
136,666
137,650
138,633
139,611
140,579
141,549
142,523
143,499
144,473
145,452
146,441
147,417
148,389
149,369
150,357
151,342
152,320
153,302
154,292
155,282
156,276
157,269
158,266
159,269
160,275
161,280
162,287
163,297
164,308
165,314
166,314
167,311
168,314
169,323
170,333
171,342
172,358
173,368
174,370
175,376
176,386
177,404
178,418
179,429
180,433
181,433
182,439
183,455
184,470
185,470
186,470
187,475
188,477
189,480
190,482
191,479
192,483
193,498
194,500
195,493
196,488
197,484
198,483
199,499
200,508
201,504
202,509
203,514
204,516
205,515
206,519
207,525
208,527
209,522
210,514
211,507
212,503
213,507
214,511
215,510
216,512
217,503
218,497
219,506
220,514
221,515
222,518
223,519
224,519
225,512
226,499
227,494
228,493
229,501
230,503
231,497
232,493
233,493
234,493
235,497
236,499
237,501
238,504
239,513
240,562
241,683
242,828
243,982
244,998
245,998
246,985
247,692
248,392
249,365
250,444
251,505
252,522
253,512
254,495
255,486
256,487
257,487
258,491
259,487
260,481
261,480
262,482
263,480
264,482
265,491
266,495
267,492
268,492
269,494
270,498
271,502
272,506
273,513
274,522
275,531
276,548
277,564
278,568
279,572
280,579
281,583
282,588
283,600
284,609
285,607
286,605
287,602
288,597
289,583
290,566
291,562
292,545
293,512
294,478
295,450
296,436
297,419
298,403
299,397
300,387
301,371
302,366
303,369
304,376
305,382
306,378
307,365
308,362
309,370
310,386
311,392
312,391
313,394
314,407
315,417
316,418
317,419
318,416
319,421
320,429
321,433
322,435
323,429
324,420
325,429
326,434
327,430
328,434
329,442
330,438
331,437
332,446
333,459
334,460
335,458
336,462
337,472
338,476
339,475
340,473
341,471
342,470
343,467
344,469
345,478
346,475
347,470
348,471
349,478
350,482
351,483
352,492
353,504
354,503
355,503
356,508
357,514
358,515
359,513
360,508
361,504
362,506
363,510
364,514
365,517
366,518
367,519
368,520
369,525
370,523
371,513
372,514
373,528
374,528
375,521
376,518
377,526
378,533
379,532
380,529
381,521
382,510
383,504
384,508
385,508
386,510
387,519
388,515
389,512
390,514
391,515
392,517
393,530
394,536
395,525
396,528
397,578
398,696
399,840
400,993
401,998
402,999
403,991
404,700
405,396
406,373
407,455
408,521
409,540
410,532
411,521
412,511
413,513
414,521
415,524
416,524
417,528
418,532
419,530
420,529
421,534
422,541
423,550
424,560
425,561
426,554
427,552
428,562
429,569
430,576
431,579
432,580
433,593
434,623
435,642
436,642
437,646
438,663
439,676
440,681
441,685
442,697
443,701
444,695
445,693
446,684
447,670
448,650
449,639
450,620
451,589
452,561
453,542
454,525
455,510
456,501
457,499
458,496
459,484
460,474
461,475
462,474
463,473
464,476
465,470
466,464
467,469
468,473
469,473
470,474
471,475
472,482
473,485
474,478
475,474
476,483
477,490
478,484
479,479
480,484
481,478
482,473
483,475
484,478
485,471
486,465
487,471
488,481
489,488
490,493
491,493
492,497
493,500
494,495
495,489
496,489
497,490
498,489
499,485
500,478
501,479
502,478
503,476
504,478
505,478
506,475
507,472
508,471
509,481
510,491
511,489
512,487
513,486
514,486
515,490
516,490
517,487
518,483
519,476
520,484
521,497
522,493
523,492
524,489
525,487
526,486
527,484
528,485
529,483
530,479
531,473
532,470
533,467
534,465
535,476
536,481
537,473
538,469
539,474
540,470
541,472
542,483
543,485
544,495
545,503
546,503
547,501
548,504
549,512
550,506
551,493
552,480
553,477
554,478
555,478
556,473
557,465
558,469
559,479
560,482
561,482
562,476
563,476
564,478
565,474
566,493
567,566
568,688
569,840
570,991
571,998
572,997
573,880
574,492
575,295
576,336
577,431
578,478
579,472
580,455
581,446
582,454
583,461
584,459
585,452
586,447
587,452
588,465
589,479
590,486
591,484
592,489
593,490
594,495
595,512
596,528
597,531
598,532
599,540
600,547
601,562
602,582
603,592
604,590
605,589
606,610
607,638
608,643
609,644
610,653
611,669
612,671
613,662
614,658
615,659
616,646
617,628
618,613
619,591
620,565
621,540
622,519
623,500
624,480
625,456
626,449
627,449
628,438
629,426
630,419
631,424
632,431
633,427
634,422
635,421
636,429
637,438
638,440
639,433
640,437
641,455
642,459
643,456
644,454
645,454
646,457
647,460
648,467
649,476
650,476
651,475
652,472
653,471
654,472
655,476
656,487
657,498
658,490
659,482
660,477
661,485
662,488
663,486
664,487
665,486
666,482
667,477
668,471
669,466
670,463
671,467
672,475
673,467
674,462
675,473
676,481
677,474
678,464
679,473
680,481
681,478
682,472
683,476
684,484
685,494
686,493
687,489
688,489
689,486
690,485
691,487
692,484
693,483
694,488
695,491
696,486
697,485
698,489
699,488
700,484
701,480
702,479
703,485
704,485
705,475
706,467
707,466
708,460
709,463
710,470
711,465
712,459
713,456
714,461
715,463
716,459
717,459
718,469
719,473
720,476
721,476
722,477
723,478
724,461
725,457
726,463
727,466
728,470
729,473
730,478
731,482
732,480
733,480
734,489
735,502
736,515
737,515
738,523
739,581
740,684
741,826
742,984
743,997
744,997
745,938
746,588
747,370
748,398
749,464
750,515
751,535
752,536
753,529
754,515
755,507
756,514
757,528
758,530
759,524
760,521
761,535
762,547
763,556
764,560
765,559
766,563
767,574
768,584
769,585
770,589
771,593
772,605
773,615
774,631
775,645
776,651
777,658
778,672
779,690
780,700
781,704
782,701
783,706
784,714
785,712
786,710
787,701
788,688
789,673
790,662
791,646
792,621
793,588
794,560
795,541
796,528
797,506
798,494
799,492
800,484
801,476
802,472
803,473
804,471
805,462
806,466
807,468
808,461
809,456
810,460
811,463
812,461
813,457
814,461
815,464
816,460
817,462
818,464
819,458
820,459
821,462
822,464
823,469
824,468
825,462
826,473
827,482
828,477
829,469
830,469
831,475
832,468
833,471
834,478
835,476
836,467
837,459
838,462
839,465
840,463
841,462
842,453
843,443
844,444
845,449
846,447
847,440
848,445
849,454
850,458
851,447
852,432
853,447
854,468
855,463
856,458
857,456
858,449
859,448
860,452
861,463
862,467
863,464
864,452
865,443
866,443
867,443
868,454
869,462
870,455
871,448
872,460
873,464
874,456
875,457
876,462
877,462
878,464
879,469
880,470
881,471
882,471
883,471
884,470
885,467
886,464
887,462
888,466
889,473
890,471
891,463
892,462
893,460
894,469
895,485
896,481
897,470
898,468
899,478
900,475
901,458
902,447
903,447
904,451
905,451
906,444
907,446
908,465
909,466
910,458
911,454
912,456
913,464
914,465
915,474
916,522
917,642
918,791
919,952
920,996
921,996
922,924
923,567
924,310
925,320
926,400
927,456
928,473
929,464
930,458
931,453
932,453
933,461
934,462
935,457
936,458
937,465
938,471
939,471
940,473
941,484
942,491
943,490
944,490
945,489
946,499
947,513
948,512
949,516
950,528
951,534
952,551
953,570
954,588
955,607
956,623
957,635
958,651
959,673
960,682
961,686
962,690
963,696
964,700
965,689
966,671
967,658
968,639
969,613
970,589
971,571
972,554
973,532
974,511
975,494
976,485
977,483
978,481
979,484
980,473
981,463
982,470
983,476
984,468
985,461
986,464
987,468
988,468
989,463
990,460
991,463
992,469
993,475
994,481
995,483
996,478
997,478
998,480
999,482
1000,485
1001,481
1002,479
1003,486
1004,483
1005,483
1006,487
1007,488
1008,490
1009,500
1010,501
1011,499
1012,503
1013,505
1014,505
1015,508
1016,504
1017,500
1018,498
1019,498
1020,490
1021,489
1022,491
1023,493
1024,489
1025,480
1026,481
1027,491
1028,496
1029,492
1030,487
1031,486
1032,484
1033,484
1034,488
1035,487
1036,487
1037,488
1038,485
1039,486
1040,488
1041,489
1042,493
1043,489
1044,486
1045,495
1046,503
1047,502
1048,496
1049,494
1050,499
1051,505
1052,506
1053,498
1054,501
1055,523
1056,525
1057,522
1058,520
1059,517
1060,521
1061,530
1062,528
1063,529
1064,535
1065,538
1066,540
1067,543
1068,547
1069,548
1070,543
1071,541
1072,545
1073,544
1074,548
1075,555
1076,553
1077,547
1078,550
1079,552
1080,553
1081,561
1082,569
1083,567
1084,557
1085,547
1086,538
1087,529
1088,535
1089,541
1090,544
1091,546
1092,542
1093,535
1094,532
1095,535
1096,541
1097,546
1098,537
1099,545
1100,604
1101,723
1102,870
1103,996
1104,999
1105,999
1106,983
1107,655
1108,377
1109,372
1110,462
1111,523
1112,535
1113,522
1114,507
1115,505
1116,511
1117,513
1118,498
1119,502
1120,514
1121,519
1122,518
1123,516
1124,519
1125,523
1126,529
1127,536
1128,541
1129,532
1130,532
1131,536
1132,541
1133,549
1134,555
1135,558
1136,573
1137,599
1138,603
1139,601
1140,610
1141,632
1142,650
1143,660
1144,667
1145,669
1146,672
1147,671
1148,666
1149,657
1150,640
1151,629
1152,622
1153,591
1154,555
1155,533
1156,514
1157,498
1158,486
1159,465
1160,452
1161,448
1162,443
1163,440
1164,436
1165,429
1166,429
1167,435
1168,434
1169,425
1170,428
1171,429
1172,420
1173,423
1174,436
1175,442
1176,440
1177,442
1178,444
1179,446
1180,442
1181,439
1182,448
1183,461
1184,450
1185,437
1186,435
1187,440
1188,452
1189,452
1190,447
1191,449
1192,453
1193,455
1194,461
1195,466
1196,468
1197,465
1198,467
1199,469
1200,462
1201,462
1202,473
1203,464
1204,450
1205,445
1206,448
1207,451
1208,454
1209,449
1210,446
1211,447
1212,455
1213,464
1214,464
1215,461
1216,461
1217,458
1218,459
1219,464
1220,464
1221,457
1222,450
1223,446
1224,442
1225,445
1226,465
1227,469
1228,456
1229,449
1230,450
1231,451
1232,446
1233,442
1234,444
1235,441
1236,440
1237,446
1238,448
1239,446
1240,445
1241,443
1242,440
1243,437
1244,444
1245,447
1246,441
1247,439
1248,454
1249,458
1250,448
1251,437
1252,439
1253,440
1254,435
1255,436
1256,448
1257,452
1258,445
1259,446
1260,448
1261,448
1262,449
1263,453
1264,454
1265,454
1266,452
1267,456
1268,458
1269,454
1270,462
1271,474
1272,476
1273,481
1274,485
1275,488
1276,486
1277,480
1278,473
1279,471
1280,469
1281,469
1282,474
1283,472
1284,472
1285,487
1286,496
1287,491
1288,488
1289,491
1290,506
1291,506
1292,528
1293,611
1294,741
1295,894
1296,997
1297,999
1298,998
1299,913
1300,539
1301,365
1302,408
1303,497
1304,549
1305,542
1306,512
1307,491
1308,478
1309,474
1310,472
1311,460
1312,450
1313,454
1314,458
1315,457
1316,457
1317,462
1318,464
1319,473
1320,479
1321,478
1322,486
1323,495
1324,498
1325,507
1326,523
1327,533
1328,552
1329,580
1330,591
1331,601
1332,613
1333,625
1334,636
1335,652
1336,668
1337,679
1338,681
1339,680
1340,676
1341,667
1342,665
1343,670
1344,655
1345,631
1346,606
1347,584
1348,565
1349,553
1350,538
1351,514
1352,501
1353,497
1354,491
1355,479
1356,480
1357,486
1358,479
1359,473
1360,471
1361,471
1362,479
1363,482
1364,474
1365,473
1366,479
1367,488
1368,486
1369,486
1370,485
1371,491
1372,496
1373,491
1374,489
1375,488
1376,484
1377,483
1378,486
1379,486
1380,485
1381,482
1382,478
1383,481
1384,483
1385,489
1386,497
1387,504
1388,499
1389,493
1390,494
1391,503
1392,510
1393,506
1394,495
1395,492
1396,495
1397,492
1398,486
1399,481
1400,482
1401,484
1402,477
1403,464
1404,452
1405,457
1406,459
1407,448
1408,440
1409,439
1410,440
1411,440
1412,429
1413,427
1414,442
1415,447
1416,439
1417,440
1418,439
1419,439
1420,442
1421,446
1422,452
1423,448
1424,441
1425,454
1426,460
1427,447
1428,434
1429,443
1430,457
1431,452
1432,447
1433,451
1434,447
1435,440
1436,444
1437,451
1438,450
1439,451
1440,456
1441,455
1442,459
1443,466
1444,469
1445,476
1446,476
1447,469
1448,477
1449,490
1450,483
1451,480
1452,495
1453,508
1454,508
1455,511
1456,515
1457,508
1458,497
1459,492
1460,498
1461,503
1462,503
1463,515
1464,516
1465,508
1466,511
1467,523
1468,530
1469,532
1470,531
1471,531
1472,540
1473,590
1474,696
1475,835
1476,992
1477,999
1478,999
1479,995
1480,774
1481,461
1482,410
1483,475
1484,532
1485,557
1486,554
1487,544
1488,543
1489,534
1490,532
1491,544
1492,548
1493,547
1494,543
1495,541
1496,538
1497,530
1498,525
1499,516
1500,504
1501,503
1502,501
1503,490
1504,482
1505,477
1506,483
1507,485
1508,491
1509,497
1510,503
1511,513
1512,518
1513,522
1514,530
1515,536
1516,551
1517,572
1518,578
1519,571
1520,562
1521,555
1522,545
1523,542
1524,544
1525,518
1526,483
1527,457
1528,437
1529,414
1530,393
1531,374
1532,359
1533,360
1534,360
1535,350
1536,341
1537,337
1538,337
1539,339
1540,353
1541,371
1542,368
1543,363
1544,365
1545,376
1546,388
1547,394
1548,388
1549,385
1550,390
1551,397
1552,402
1553,405
1554,401
1555,399
1556,401
1557,407
1558,405
1559,409
1560,419
1561,422
1562,423
1563,426
1564,429
1565,435
1566,443
1567,447
1568,450
1569,447
1570,447
1571,453
1572,455
1573,452
1574,451
1575,452
1576,449
1577,444
1578,449
1579,460
1580,457
1581,454
1582,463
1583,473
1584,473
1585,467
1586,465
1587,470
1588,472
1589,470
1590,471
1591,473
1592,484
1593,484
1594,479
1595,475
1596,478
1597,481
1598,485
1599,493
1600,499
1601,494
1602,490
1603,495
1604,494
1605,496
1606,503
1607,512
1608,509
1609,498
1610,505
1611,510
1612,500
1613,503
1614,509
1615,508
1616,513
1617,527
1618,529
1619,519
1620,513
1621,508
1622,498
1623,493
1624,495
1625,503
1626,506
1627,507
1628,508
1629,509
1630,507
1631,508
1632,513
1633,515
1634,525
1635,568
1636,650
1637,755
1638,880
1639,985
1640,991
1641,914
1642,609
1643,347
1644,353
1645,433
1646,476
1647,507
1648,521
1649,525
1650,524
1651,523
1652,526
1653,534
1654,536
1655,534
1656,538
1657,547
1658,557
1659,564
1660,563
1661,574
1662,595
1663,608
1664,610
1665,608
1666,605
1667,615
1668,629
1669,633
1670,636
1671,650
1672,665
1673,674
1674,686
1675,711
1676,728
1677,731
1678,726
1679,727
1680,735
1681,741
1682,738
1683,733
1684,727
1685,717
1686,704
1687,682
1688,655
1689,627
1690,594
1691,564
1692,551
1693,540
1694,520
1695,500
1696,493
1697,492
1698,482
1699,470
1700,472
1701,483
1702,484
1703,477
1704,475
1705,481
1706,485
1707,487
1708,488
1709,493
1710,492
1711,493
1712,506
1713,508
1714,502
1715,499
1716,499
1717,504
1718,516
1719,523
1720,511
1721,504
1722,509
1723,521
1724,526
1725,522
1726,520
1727,522
1728,527
1729,528
1730,528
1731,535
1732,538
1733,536
1734,540
1735,546
1736,551
1737,544
1738,536
1739,542
1740,551
1741,553
1742,551
1743,551
1744,550
1745,549
1746,551
1747,552
1748,555
1749,549
1750,537
1751,541
1752,544
1753,536
1754,528
1755,527
1756,524
1757,517
1758,514
1759,514
1760,513
1761,504
1762,494
1763,488
1764,490
1765,488
1766,485
1767,489
1768,488
1769,480
1770,474
1771,467
1772,454
1773,442
1774,443
1775,449
1776,445
1777,439
1778,437
1779,438
1780,436
1781,436
1782,437
1783,439
1784,439
1785,436
1786,459
1787,532
1788,639
1789,781
1790,921
1791,975
1792,930
1793,686
1794,353
1795,257
1796,315
1797,376
1798,426
1799,441
1800,428
1801,427
1802,440
1803,439
1804,442
1805,447
1806,449
1807,455
1808,464
1809,475
1810,486
1811,496
1812,507
1813,518
1814,532
1815,544
1816,548
1817,546
1818,556
1819,573
1820,587
1821,600
1822,615
1823,622
1824,629
1825,635
1826,656
1827,686
1828,697
1829,700
1830,703
1831,708
1832,716
1833,720
1834,717
1835,712
1836,705
1837,693
1838,670
1839,643
1840,616
1841,593
1842,571
1843,553
1844,534
1845,513
1846,502
1847,494
1848,490
1849,489
1850,482
1851,478
1852,476
1853,471
1854,468
1855,464
1856,463
1857,467
1858,472
1859,473
1860,478
1861,484
1862,478
1863,475
1864,472
1865,474
1866,475
1867,479
1868,484
1869,492
1870,487
1871,476
1872,476
1873,485
1874,481
1875,473
1876,479
1877,492
1878,487
1879,484
1880,480
1881,477
1882,483
1883,495
1884,503
1885,502
1886,498
1887,488
1888,481
1889,476
1890,473
1891,467
1892,458
1893,447
1894,435
1895,430
1896,422
1897,415
1898,417
1899,412
1900,399
1901,394
1902,401
1903,398
1904,388
1905,388
1906,388
1907,381
1908,379
1909,382
1910,372
1911,365
1912,371
1913,373
1914,376
1915,377
1916,377
1917,378
1918,383
1919,388
1920,388
1921,391
1922,391
1923,398
1924,401
1925,403
1926,411
1927,413
1928,412
1929,419
1930,436
1931,437
1932,428
1933,417
1934,412
1935,416
1936,419
1937,423
1938,425
1939,427
1940,431
1941,431
1942,431
1943,440
1944,449
1945,451
1946,455
1947,500
1948,626
1949,778
1950,936
1951,996
1952,994
1953,894
1954,523
1955,282
1956,309
1957,396
1958,452
1959,469
1960,462
1961,450
1962,448
1963,462
1964,474
1965,470
1966,468
1967,473
1968,474
1969,479
1970,490
1971,496
1972,503
1973,508
1974,508
1975,510
1976,518
1977,523
1978,520
1979,521
1980,533
1981,550
1982,568
1983,576
1984,575
1985,585
1986,604
1987,617
1988,628
1989,638
1990,651
1991,664
1992,671
1993,668
1994,668
1995,669
1996,664
1997,650
1998,633
1999,614
2000,594
2001,569
2002,541
2003,514
2004,503
2005,491
2006,475
2007,458
2008,451
2009,457
2010,457
2011,457
2012,451
2013,443
2014,442
2015,442
2016,441
2017,437
2018,431
2019,435
2020,446
2021,446
2022,440
2023,445
2024,454
2025,459
2026,457
2027,458
2028,467
2029,469
2030,463
2031,459
2032,460
2033,459
2034,457
2035,460
2036,459
2037,462
2038,463
2039,464
2040,469
2041,477
2042,476
2043,478
2044,488
2045,487
2046,481
2047,483
2048,488
2049,482
2050,473
2051,475
2052,472
2053,464
2054,461
2055,462
2056,464
2057,463
2058,469
2059,471
2060,465
2061,464
2062,469
2063,474
2064,482
2065,480
2066,478
2067,476
2068,475
2069,473
2070,473
2071,472
2072,470
2073,472
2074,474
2075,478
2076,479
2077,478
2078,479
2079,479
2080,486
2081,486
2082,483
2083,486
2084,491
2085,498
2086,499
2087,491
2088,487
2089,489
2090,499
2091,502
2092,492
2093,485
2094,499
2095,513
2096,517
2097,517
2098,514
2099,511
2100,503
2101,494
2102,484
2103,481
2104,488
2105,486
2106,481
2107,481
2108,481
2109,481
2110,480
2111,487
2112,491
2113,489
2114,479
2115,485
2116,550
2117,683
2118,828
2119,981
2120,998
2121,997
2122,938
2123,567
2124,316
2125,332
2126,428
2127,495
2128,504
2129,486
2130,472
2131,473
2132,483
2133,483
2134,480
2135,488
2136,493
2137,493
2138,499
2139,509
2140,512
2141,516
2142,525
2143,531
2144,540
2145,548
2146,547
2147,545
2148,544
2149,548
2150,567
2151,585
2152,593
2153,594
2154,606
2155,619
2156,629
2157,635
2158,649
2159,676
2160,680
2161,675
2162,675
2163,675
2164,673
2165,667
2166,654
2167,641
2168,620
2169,595
2170,573
2171,547
2172,517
2173,504
2174,494
2175,473
2176,466
2177,466
2178,461
2179,456
2180,455
2181,460
2182,468
2183,473
2184,472
2185,467
2186,467
2187,469
2188,472
2189,480
2190,484
2191,488
2192,490
2193,484
2194,485
2195,493
2196,494
2197,493
2198,494
2199,493
2200,488
2201,489
2202,485
2203,487
2204,495
2205,496
2206,498
2207,501
2208,501
2209,504
2210,506
2211,508
2212,517
2213,524
2214,518
2215,505
2216,506
2217,512
2218,512
2219,505
2220,499
2221,499
2222,493
2223,491
2224,495
2225,495
2226,496
2227,504
2228,504
2229,495
2230,497
2231,508
2232,511
2233,509
2234,504
2235,504
2236,511
2237,510
2238,505
2239,497
2240,492
2241,493
2242,502
2243,505
2244,507
2245,505
2246,501
2247,502
2248,505
2249,499
2250,498
2251,504
2252,502
2253,497
2254,499
2255,505
2256,504
2257,499
2258,497
2259,500
2260,500
2261,496
2262,497
2263,497
2264,496
2265,495
2266,496
2267,491
2268,493
2269,503
2270,510
2271,500
2272,491
2273,495
2274,509
2275,506
2276,495
2277,487
2278,494
2279,503
2280,501
2281,508
2282,512
2283,503
2284,500
2285,516
2286,534
2287,538
2288,533
2289,542
2290,551
2291,550
2292,549
2293,547
2294,540
2295,533
2296,532
2297,540
2298,542
2299,543
2300,539
2301,542
2302,542
2303,537
2304,546
2305,557
2306,555
2307,580
2308,672
2309,810
2310,976
2311,999
2312,1000
2313,998
2314,851
2315,499
2316,395
2317,458
2318,530
2319,553
2320,543
2321,530
2322,526
2323,533
2324,542
2325,534
2326,525
2327,526
2328,535
2329,542
2330,540
2331,538
2332,544
2333,549
2334,552
2335,551
2336,547
2337,551
2338,551
2339,551
2340,552
2341,551
2342,559
2343,571
2344,580
2345,591
2346,599
2347,609
2348,624
2349,636
2350,648
2351,654
2352,659
2353,665
2354,661
2355,649
2356,644
2357,640
2358,629
2359,611
2360,585
2361,564
2362,546
2363,523
2364,500
2365,485
2366,473
2367,463
2368,453
2369,440
2370,427
2371,425
2372,431
2373,426
2374,420
2375,417
2376,417
2377,415
2378,412
2379,408
2380,406
2381,409
2382,417
2383,413
2384,410
2385,418
2386,420
2387,427
2388,430
2389,425
2390,423
2391,421
2392,418
2393,425
2394,431
2395,429
2396,434
2397,441
2398,439
2399,443
2400,449
2401,452
2402,450
2403,456
2404,458
2405,457
2406,463
2407,461
2408,455
2409,460
2410,462
2411,461
2412,463
2413,462
2414,455
2415,457
2416,465
2417,468
2418,464
2419,466
2420,478
2421,477
2422,469
2423,470
2424,476
2425,481
2426,477
2427,474
2428,474
2429,469
2430,465
2431,472
2432,479
2433,479
2434,481
2435,478
2436,475
2437,487
2438,496
2439,488
2440,488
2441,496
2442,500
2443,496
2444,495
2445,501
2446,503
2447,502
2448,498
2449,494
2450,509
2451,519
2452,510
2453,497
2454,501
2455,511
2456,511
2457,513
2458,515
2459,510
2460,506
2461,509
2462,512
2463,511
2464,505
2465,504
2466,506
2467,508
2468,509
2469,507
2470,513
2471,522
2472,519
2473,510
2474,508
2475,515
2476,525
2477,525
2478,523
2479,524
2480,522
2481,509
2482,493
2483,487
2484,494
2485,499
2486,500
2487,496
2488,494
2489,497
2490,496
2491,492
2492,502
2493,520
2494,518
2495,523
2496,564
2497,654
2498,797
2499,972
2500,997
2501,997
2502,922
2503,568
2504,344
2505,365
2506,426
2507,463
2508,492
2509,509
2510,501
2511,485
2512,480
2513,486
2514,484
2515,481
2516,496
2517,507
2518,502
2519,501
2520,511
2521,523
2522,528
2523,525
2524,525
2525,532
2526,538
2527,539
2528,541
2529,552
2530,568
2531,573
2532,583
2533,600
2534,613
2535,618
2536,618
2537,623
2538,638
2539,652
2540,654
2541,652
2542,653
2543,655
2544,652
2545,643
2546,629
2547,624
2548,613
2549,584
2550,558
2551,533
2552,512
2553,494
2554,476
2555,460
2556,450
2557,441
2558,433
2559,420
2560,419
2561,424
2562,415
2563,404
2564,405
2565,409
2566,407
2567,402
2568,402
2569,406
2570,417
2571,427
2572,417
2573,408
2574,402
2575,402
2576,409
2577,412
2578,406
2579,403
2580,414
2581,423
2582,427
2583,420
2584,418
2585,424
2586,425
2587,426
2588,428
2589,436
2590,443
2591,443
2592,447
2593,448
2594,435
2595,437
2596,452
2597,455
2598,452
2599,454
2600,453
2601,445
2602,444
2603,459
2604,464
2605,462
2606,462
2607,461
2608,459
2609,459
2610,471
2611,471
2612,461
2613,468
2614,477
2615,479
2616,469
2617,464
2618,472
2619,478
2620,479
2621,483
2622,482
2623,470
2624,463
2625,472
2626,495
2627,496
2628,485
2629,481
2630,479
2631,482
2632,491
2633,500
2634,494
2635,486
2636,486
2637,493
2638,494
2639,492
2640,502
2641,507
2642,501
2643,500
2644,504
2645,516
2646,526
2647,522
2648,510
2649,496
2650,490
2651,497
2652,495
2653,490
2654,492
2655,493
2656,500
2657,503
2658,498
2659,503
2660,510
2661,516
2662,513
2663,524
2664,575
2665,670
2666,801
2667,932
2668,991
2669,991
2670,877
2671,528
2672,319
2673,357
2674,436
2675,484
2676,508
2677,517
2678,522
2679,515
2680,513
2681,515
2682,513
2683,512
2684,517
2685,526
2686,540
2687,547
2688,548
2689,550
2690,554
2691,571
2692,584
2693,578
2694,575
2695,582
2696,591
2697,593
2698,601
2699,618
2700,623
2701,627
2702,642
2703,656
2704,669
2705,680
2706,686
2707,686
2708,693
2709,697
2710,692
2711,692
2712,690
2713,680
2714,672
2715,660
2716,635
2717,602
2718,574
2719,554
2720,538
2721,512
2722,484
2723,467
2724,462
2725,459
2726,452
2727,444
2728,431
2729,438
2730,452
2731,450
2732,440
2733,438
2734,437
2735,435
2736,437
2737,442
2738,447
2739,450
2740,457
2741,457
2742,452
2743,458
2744,470
2745,462
2746,464
2747,471
2748,472
2749,468
2750,467
2751,472
2752,474
2753,479
2754,482
2755,485
2756,479
2757,476
2758,481
2759,481
2760,479
2761,474
2762,478
2763,484
2764,477
2765,471
2766,478
2767,482
2768,480
2769,480
2770,479
2771,477
2772,479
2773,478
2774,476
2775,479
2776,486
2777,487
2778,480
2779,477
2780,480
2781,486
2782,482
2783,475
2784,476
2785,476
2786,475
2787,475
2788,473
2789,474
2790,475
2791,479
2792,480
2793,478
2794,473
2795,474
2796,482
2797,487
2798,483
2799,480
2800,483
2801,487
2802,477
2803,476
2804,490
2805,489
2806,484
2807,494
2808,503
2809,501
2810,495
2811,496
2812,503
2813,503
2814,490
2815,480
2816,478
2817,477
2818,480
2819,489
2820,492
2821,486
2822,486
2823,484
2824,486
2825,492
2826,498
2827,490
2828,501
2829,571
2830,695
2831,839
2832,981
2833,996
2834,996
2835,907
2836,537
2837,303
2838,329
2839,412
2840,470
2841,488
2842,485
2843,477
2844,473
2845,480
2846,476
2847,476
2848,482
2849,482
2850,483
2851,489
2852,497
2853,500
2854,506
2855,515
2856,515
2857,514
2858,520
2859,519
2860,518
2861,528
2862,538
2863,552
2864,557
2865,559
2866,569
2867,587
2868,602
2869,614
2870,624
2871,636
2872,652
2873,659
2874,655
2875,653
2876,663
2877,671
2878,656
2879,635
2880,617
2881,596
2882,584
2883,557
2884,521
2885,498
2886,475
2887,450
2888,435
2889,427
2890,420
2891,403
2892,400
2893,405
2894,408
2895,411
2896,406
2897,398
2898,395
2899,397
2900,396
2901,393
2902,388
2903,393
2904,398
2905,402
2906,404
2907,404
2908,407
2909,408
2910,403
2911,410
2912,424
2913,425
2914,420
2915,418
2916,417
2917,419
2918,422
2919,429
2920,437
2921,432
2922,431
2923,441
2924,454
2925,459
2926,458
2927,457
2928,457
2929,458
2930,461
2931,460
2932,457
2933,459
2934,461
2935,457
2936,456
2937,453
2938,452
2939,454
2940,459
2941,458
2942,455
2943,458
2944,458
2945,455
2946,472
2947,484
2948,478
2949,474
2950,475
2951,477
2952,475
2953,472
2954,479
2955,483
2956,471
2957,468
2958,479
2959,484
2960,478
2961,473
2962,481
2963,494
2964,495
2965,490
2966,491
2967,493
2968,493
2969,486
2970,484
2971,490
2972,491
2973,489
2974,488
2975,490
2976,494
2977,494
2978,492
2979,491
2980,491
2981,498
2982,499
2983,503
2984,515
2985,514
2986,502
2987,501
2988,506
2989,502
2990,496
2991,489
2992,492
2993,505
2994,507
2995,505
2996,501
2997,496
2998,500
2999,511
3000,518
3001,505
3002,520
3003,588
3004,711
3005,869
3006,995
3007,998
3008,998
3009,948
3010,582
3011,338
3012,359
3013,454
3014,510
3015,515
3016,508
3017,506
3018,498
3019,500
3020,504
3021,505
3022,503
3023,504
3024,512
3025,527
3026,529
3027,527
3028,529
3029,525
3030,535
3031,547
3032,546
3033,549
3034,549
3035,551
3036,560
3037,568
3038,579
3039,596
3040,606
3041,617
3042,625
3043,629
3044,647
3045,665
3046,671
3047,679
3048,710
3049,720
3050,711
3051,695
3052,679
3053,667
3054,657
3055,639
3056,607
3057,568
3058,541
3059,526
3060,510
3061,483
3062,463
3063,457
3064,457
3065,449
3066,446
3067,444
3068,439
3069,436
3070,441
3071,447
3072,450
3073,440
3074,431
3075,436
3076,449
3077,446
3078,438
3079,435
3080,435
3081,445
3082,452
3083,443
3084,444
3085,444
3086,437
3087,433
3088,436
3089,437
3090,445
3091,440
3092,438
3093,450
3094,453
3095,447
3096,446
3097,455
3098,468
3099,476
3100,470
3101,473
3102,474
3103,471
3104,471
3105,473
3106,471
3107,471
3108,472
3109,464
3110,461
3111,464
3112,465
3113,466
3114,465
3115,474
3116,479
3117,478
3118,477
3119,476
3120,481
3121,479
3122,478
3123,484
3124,489
3125,492
3126,489
3127,486
3128,491
3129,499
3130,492
3131,486
3132,495
3133,501
3134,504
3135,504
3136,499
3137,500
3138,505
3139,508
3140,499
3141,496
3142,509
3143,506
3144,502
3145,507
3146,510
3147,509
3148,505
3149,507
3150,512
3151,514
3152,514
3153,512
3154,506
3155,500
3156,515
3157,534
3158,526
3159,519
3160,525
3161,522
3162,513
3163,506
3164,500
3165,499
3166,498
3167,500
3168,497
3169,487
3170,484
3171,493
3172,495
3173,496
3174,496
3175,492
3176,491
3177,522
3178,615
3179,751
3180,909
3181,997
3182,997
3183,995
3184,811
3185,432
3186,319
3187,385
3188,458
3189,493
3190,501
3191,494
3192,481
3193,476
3194,481
3195,482
3196,481
3197,486
3198,487
3199,498
3200,505
3201,502
3202,506
3203,516
3204,524
3205,521
3206,522
3207,531
3208,536
3209,528
3210,521
3211,532
3212,559
3213,568
3214,569
3215,577
3216,594
3217,610
3218,622
3219,636
3220,651
3221,657
3222,665
3223,672
3224,669
3225,665
3226,665
3227,661
3228,648
3229,625
3230,602
3231,584
3232,563
3233,542
3234,523
3235,494
3236,472
3237,463
3238,463
3239,455
3240,443
3241,438
3242,435
3243,429
3244,426
3245,434
3246,440
3247,431
3248,419
3249,422
3250,428
3251,437
3252,444
3253,447
3254,448
3255,445
3256,448
3257,455
3258,460
3259,462
3260,456
3261,447
3262,451
3263,456
3264,460
3265,462
3266,452
3267,453
3268,467
3269,468
3270,464
3271,462
3272,476
3273,488
3274,485
3275,484
3276,486
3277,479
3278,475
3279,480
3280,487
3281,486
3282,474
3283,466
3284,463
3285,469
3286,475
3287,471
3288,472
3289,478
3290,479
3291,478
3292,474
3293,468
3294,474
3295,485
3296,479
3297,472
3298,471
3299,476
3300,478
3301,477
3302,482
3303,484
3304,480
3305,482
3306,486
3307,480
3308,479
3309,482
3310,479
3311,485
3312,490
3313,481
3314,478
3315,481
3316,486
3317,487
3318,485
3319,487
3320,491
3321,488
3322,488
3323,492
3324,486
3325,481
3326,493
3327,507
3328,504
3329,494
3330,494
3331,499
3332,504
3333,509
3334,511
3335,500
3336,487
3337,480
3338,480
3339,482
3340,480
3341,475
3342,476
3343,484
3344,490
3345,491
3346,486
3347,483
3348,488
3349,489
3350,503
3351,554
3352,656
3353,796
3354,965
3355,998
3356,999
3357,988
3358,686
3359,368
3360,345
3361,427
3362,492
3363,512
3364,504
3365,494
3366,487
3367,481
3368,479
3369,479
3370,482
3371,487
3372,492
3373,493
3374,498
3375,509
3376,517
3377,523
3378,522
3379,522
3380,525
3381,527
3382,530
3383,535
3384,541
3385,545
3386,553
3387,569
3388,584
3389,591
3390,599
3391,611
3392,624
3393,628
3394,637
3395,650
3396,652
3397,652
3398,651
3399,648
3400,645
3401,633
3402,618
3403,601
3404,580
3405,551
3406,518
3407,495
3408,485
3409,475
3410,459
3411,444
3412,439
3413,433
3414,426
3415,423
3416,421
3417,422
3418,426
3419,428
3420,427
3421,427
3422,422
3423,428
3424,438
3425,440
3426,433
3427,436
3428,443
3429,447
3430,452
3431,450
3432,452
3433,454
3434,452
3435,454
3436,458
3437,459
3438,461
3439,465
3440,465
3441,463
3442,472
3443,475
3444,471
3445,474
3446,473
3447,475
3448,482
3449,484
3450,476
3451,473
3452,478
3453,483
3454,480
3455,476
3456,477
3457,476
3458,473
3459,472
3460,473
3461,479
3462,486
3463,484
3464,481
3465,485
3466,490
3467,494
3468,493
3469,491
3470,488
3471,487
3472,485
3473,482
3474,483
3475,483
3476,487
3477,486
3478,477
3479,475
3480,480
3481,484
3482,484
3483,485
3484,485
3485,485
3486,479
3487,475
3488,485
3489,497
3490,496
3491,494
3492,500
3493,504
3494,491
3495,480
3496,479
3497,479
3498,478
3499,483
3500,488
3501,490
3502,492
3503,486
3504,490
3505,499
3506,497
3507,501
3508,508
3509,526
3510,573
3511,658
3512,777
3513,909
3514,988
3515,988
3516,848
3517,496
3518,299
3519,351
3520,433
3521,478
3522,499
3523,509
3524,506
3525,502
3526,503
3527,497
3528,495
3529,500
3530,510
3531,527
3532,533
3533,524
3534,526
3535,540
3536,551
3537,557
3538,560
3539,567
3540,571
3541,571
3542,576
3543,583
3544,588
3545,595
3546,601
3547,615
3548,630
3549,638
3550,649
3551,659
3552,664
3553,672
3554,680
3555,679
3556,681
3557,688
3558,682
3559,666
3560,655
3561,646
3562,632
3563,603
3564,582
3565,561
3566,531
3567,500
3568,479
3569,469
3570,464
3571,456
3572,446
3573,433
3574,427
3575,444
3576,454
3577,444
3578,438
3579,441
3580,446
3581,453
3582,460
3583,463
3584,459
3585,454
3586,456
3587,457
3588,457
3589,463
3590,470
3591,469
3592,468
3593,472
3594,474
3595,478
3596,485
3597,484
3598,480
3599,484
3600,481
3601,477
3602,481
3603,488
3604,489
3605,483
3606,484
3607,494
3608,494
3609,488
3610,488
3611,493
3612,497
3613,505
3614,504
3615,494
3616,492
3617,487
3618,498
3619,512
3620,510
3621,501
3622,501
3623,509
3624,517
3625,514
3626,506
3627,505
3628,505
3629,513
3630,526
3631,523
3632,520
3633,515
3634,506
3635,510
3636,499
3637,488
3638,489
3639,487
3640,484
3641,489
3642,495
3643,491
3644,490
3645,489
3646,488
3647,486
3648,494
3649,511
3650,518
3651,546
3652,627
3653,737
3654,870
3655,975
3656,988
3657,879
3658,543
3659,294
3660,324
3661,411
3662,447
3663,481
3664,508
3665,510
3666,502
3667,494
3668,493
3669,494
3670,497
3671,503
3672,511
3673,520
3674,521
3675,522
3676,530
3677,534
3678,538
3679,542
3680,546
3681,550
3682,554
3683,561
3684,569
3685,576
3686,579
3687,581
3688,588
3689,601
3690,605
3691,617
3692,640
3693,646
3694,639
3695,641
3696,645
3697,644
3698,642
3699,639
3700,633
3701,620
3702,600
3703,587
3704,562
3705,533
3706,512
3707,498
3708,478
3709,455
3710,440
3711,437
3712,435
3713,427
3714,428
3715,426
3716,419
3717,411
3718,416
3719,429
3720,426
3721,422
3722,424
3723,430
3724,433
3725,435
3726,432
3727,434
3728,435
3729,442
3730,449
3731,445
3732,444
3733,455
3734,459
3735,454
3736,459
3737,468
3738,460
3739,454
3740,463
3741,472
3742,466
3743,459
3744,461
3745,468
3746,470
3747,467
3748,462
3749,462
3750,464
3751,471
3752,464
3753,464
3754,470
3755,469
3756,471
3757,475
3758,475
3759,474
3760,477
3761,479
3762,480
3763,482
3764,482
3765,483
3766,476
3767,472
3768,480
3769,484
3770,482
3771,478
3772,483
3773,493
3774,497
3775,498
3776,500
3777,497
3778,489
3779,476
3780,471
3781,472
3782,480
3783,484
3784,476
3785,466
3786,461
3787,468
3788,481
3789,483
3790,485
3791,494
3792,487
3793,505
3794,583
3795,705
3796,854
3797,993
3798,997
3799,995
3800,850
3801,462
3802,295
3803,347
3804,416
3805,459
3806,480
3807,488
3808,486
3809,474
3810,464
3811,473
3812,482
3813,483
3814,488
3815,485
3816,489
3817,506
3818,507
3819,504
3820,506
3821,512
3822,524
3823,535
3824,529
3825,524
3826,536
3827,551
3828,556
3829,568
3830,586
3831,592
3832,595
3833,610
3834,629
3835,639
3836,647
3837,648
3838,648
3839,658
3840,665
3841,665
3842,656
3843,639
3844,622
3845,613
3846,596
3847,560
3848,520
3849,500
3850,488
3851,472
3852,452
3853,435
3854,422
3855,416
3856,421
3857,424
3858,418
3859,414
3860,414
3861,419
3862,418
3863,412
3864,407
3865,410
3866,419
3867,415
3868,416
3869,424
3870,420
3871,415
3872,421
3873,430
3874,424
3875,418
3876,425
3877,431
3878,427
3879,423
3880,420
3881,426
3882,433
3883,431
3884,439
3885,443
3886,444
3887,447
3888,450
3889,456
3890,463
3891,468
3892,462
3893,458
3894,459
3895,458
3896,454
3897,446
3898,449
3899,459
3900,467
3901,458
3902,449
3903,452
3904,459
3905,464
3906,468
3907,466
3908,477
3909,495
3910,490
3911,490
3912,489
3913,480
3914,484
3915,491
3916,483
3917,483
3918,487
3919,487
3920,480
3921,490
3922,507
3923,505
3924,499
3925,507
3926,511
3927,498
3928,483
3929,477
3930,482
3931,487
3932,482
3933,481
3934,486
3935,487
3936,481
3937,480
3938,481
3939,483
3940,489
3941,488
3942,484
3943,513
3944,606
3945,741
3946,906
3947,997
3948,998
3949,995
3950,819
3951,429
3952,283
3953,341
3954,429
3955,476
3956,478
3957,464
3958,457
3959,456
3960,457
3961,457
3962,457
3963,464
3964,477
3965,479
3966,481
3967,487
3968,488
3969,496
3970,513
3971,519
3972,513
3973,510
3974,518
3975,522
3976,524
3977,531
3978,543
3979,556
3980,563
3981,576
3982,584
3983,587
3984,601
3985,629
3986,650
3987,652
3988,645
3989,644
3990,653
3991,659
3992,651
3993,646
3994,636
3995,614
3996,584
3997,555
3998,527
3999,504
4000,492
4001,471
4002,447
4003,426
4004,416
4005,416
4006,421
4007,424
4008,419
4009,412
4010,409
4011,411
4012,409
4013,415
4014,418
4015,424
4016,439
4017,441
4018,438
4019,437
4020,430
4021,433
4022,443
4023,445
4024,446
4025,447
4026,443
4027,434
4028,436
4029,445
4030,450
4031,448
4032,439
4033,445
4034,456
4035,461
4036,457
4037,464
4038,478
4039,479
4040,474
4041,470
4042,475
4043,481
4044,483
4045,480
4046,469
4047,470
4048,479
4049,476
4050,466
4051,466
4052,472
4053,470
4054,468
4055,472
4056,477
4057,477
4058,480
4059,482
4060,481
4061,483
4062,488
4063,489
4064,490
4065,487
4066,485
4067,492
4068,494
4069,489
4070,489
4071,499
4072,501
4073,497
4074,490
4075,495
4076,506
4077,502
4078,502
4079,509
4080,514
4081,514
4082,520
4083,528
4084,523
4085,517
4086,513
4087,498
4088,492
4089,494
4090,498
4091,501
4092,497
4093,492
4094,490
4095,493
4096,499
4097,495
4098,498
4099,503
4100,500
4101,525
4102,625
4103,770
4104,926
4105,997
4106,998
4107,996
4108,822
4109,432
4110,319
4111,389
4112,470
4113,500
4114,497
4115,481
4116,470
4117,472
4118,474
4119,468
4120,470
4121,473
4122,476
4123,482
4124,493
4125,496
4126,498
4127,500
4128,504
4129,511
4130,516
4131,517
4132,521
4133,530
4134,534
4135,544
4136,550
4137,554
4138,560
4139,573
4140,600
4141,609
4142,613
4143,621
4144,643
4145,664
4146,666
4147,660
4148,662
4149,667
4150,659
4151,645
4152,633
4153,617
4154,589
4155,558
4156,531
4157,507
4158,490
4159,479
4160,465
4161,452
4162,439
4163,432
4164,433
4165,431
4166,425
4167,428
4168,428
4169,417
4170,413
4171,427
4172,433
4173,424
4174,413
4175,422
4176,438
4177,443
4178,439
4179,448
4180,454
4181,458
4182,459
4183,457
4184,461
4185,455
4186,455
4187,465
4188,472
4189,472
4190,469
4191,465
4192,473
4193,481
4194,486
4195,490
4196,488
4197,487
4198,494
4199,499
4200,501
4201,498
4202,497
4203,497
4204,497
4205,505
4206,501
4207,487
4208,478
4209,482
4210,488
4211,490
4212,489
4213,494
4214,498
4215,493
4216,489
4217,492
4218,499
4219,512
4220,513
4221,506
4222,509
4223,505
4224,506
4225,512
4226,512
4227,506
4228,509
4229,517
4230,513
4231,498
4232,494
4233,514
4234,518
4235,499
4236,482
4237,487
4238,493
4239,487
4240,485
4241,494
4242,494
4243,487
4244,485
4245,497
4246,505
4247,506
4248,505
4249,501
4250,500
4251,501
4252,505
4253,502
4254,496
4255,505
4256,511
4257,505
4258,500
4259,487
4260,475
4261,483
4262,490
4263,486
4264,487
4265,490
4266,492
4267,495
4268,499
4269,498
4270,498
4271,500
4272,498
4273,505
4274,552
4275,659
4276,799
4277,957
4278,998
4279,1000
4280,996
4281,769
4282,415
4283,355
4284,436
4285,506
4286,531
4287,522
4288,501
4289,482
4290,486
4291,510
4292,507
4293,486
4294,485
4295,493
4296,498
4297,503
4298,511
4299,513
4300,510
4301,513
4302,523
4303,523
4304,520
4305,530
4306,544
4307,543
4308,537
4309,539
4310,557
4311,574
4312,584
4313,596
4314,606
4315,615
4316,623
4317,631
4318,642
4319,658
4320,661
4321,654
4322,644
4323,635
4324,634
4325,624
4326,606
4327,579
4328,553
4329,529
4330,499
4331,476
4332,472
4333,460
4334,439
4335,421
4336,418
4337,425
4338,424
4339,415
4340,410
4341,417
4342,419
4343,415
4344,415
4345,416
4346,419
4347,420
4348,430
4349,438
4350,434
4351,431
4352,427
4353,433
4354,445
4355,446
4356,439
4357,440
4358,441
4359,435
4360,435
4361,434
4362,441
4363,450
4364,449
4365,452
4366,457
4367,465
4368,463
4369,455
4370,457
4371,464
4372,454
4373,442
4374,434
4375,439
4376,448
4377,443
4378,436
4379,439
4380,434
4381,430
4382,433
4383,441
4384,437
4385,431
4386,424
4387,425
4388,445
4389,453
4390,445
4391,442
4392,445
4393,453
4394,461
4395,461
4396,463
4397,473
4398,481
4399,483
4400,477
4401,477
4402,479
4403,482
4404,493
4405,498
4406,494
4407,491
4408,496
4409,504
4410,503
4411,499
4412,503
4413,510
4414,512
4415,504
4416,503
4417,510
4418,506
4419,515
4420,530
4421,523
4422,509
4423,504
4424,505
4425,503
4426,500
4427,498
4428,498
4429,502
4430,502
4431,508
4432,519
4433,514
4434,505
4435,509
4436,524
4437,526
4438,540
4439,606
4440,715
4441,853
4442,975
4443,993
4444,977
4445,736
4446,404
4447,333
4448,397
4449,460
4450,500
4451,515
4452,519
4453,518
4454,514
4455,514
4456,518
4457,521
4458,524
4459,527
4460,529
4461,527
4462,539
4463,557
4464,552
4465,544
4466,552
4467,566
4468,571
4469,570
4470,569
4471,579
4472,590
4473,600
4474,606
4475,612
4476,614
4477,620
4478,637
4479,660
4480,666
4481,662
4482,664
4483,674
4484,676
4485,674
4486,676
4487,677
4488,664
4489,644
4490,620
4491,596
4492,571
4493,539
4494,505
4495,485
4496,479
4497,470
4498,447
4499,430
4500,427
4501,428
4502,422
4503,415
4504,417
4505,427
4506,428
4507,426
4508,431
4509,439
4510,444
4511,444
4512,436
4513,438
4514,447
4515,447
4516,449
4517,457
4518,455
4519,453
4520,457
4521,464
4522,469
4523,467
4524,462
4525,461
4526,467
4527,473
4528,468
4529,469
4530,474
4531,471
4532,464
4533,468
4534,473
4535,473
4536,474
4537,477
4538,479
4539,471
4540,466
4541,479
4542,483
4543,479
4544,480
4545,478
4546,471
4547,473
4548,487
4549,494
4550,483
4551,466
4552,470
4553,482
4554,485
4555,485
4556,488
4557,482
4558,478
4559,477
4560,480
4561,483
4562,484
4563,481
4564,478
4565,482
4566,488
4567,492
4568,501
4569,503
4570,498
4571,492
4572,472
4573,471
4574,489
4575,491
4576,484
4577,479
4578,479
4579,482
4580,478
4581,472
4582,476
4583,482
4584,492
4585,495
4586,501
4587,543
4588,631
4589,753
4590,882
4591,967
4592,984
4593,873
4594,545
4595,308
4596,336
4597,418
4598,469
4599,504
4600,521
4601,519
4602,509
4603,507
4604,509
4605,514
4606,515
4607,518
4608,526
4609,538
4610,544
4611,550
4612,559
4613,568
4614,563
4615,565
4616,580
4617,585
4618,587
4619,591
4620,600
4621,611
4622,622
4623,627
4624,632
4625,645
4626,665
4627,676
4628,676
4629,687
4630,705
4631,702
4632,698
4633,693
4634,691
4635,697
4636,693
4637,671
4638,645
4639,621
4640,600
4641,573
4642,539
4643,510
4644,490
4645,474
4646,456
4647,442
4648,443
4649,444
4650,435
4651,425
4652,419
4653,419
4654,419
4655,415
4656,412
4657,412
4658,414
4659,423
4660,428
4661,422
4662,416
4663,418
4664,425
4665,423
4666,420
4667,426
4668,423
4669,421
4670,430
4671,433
4672,425
4673,425
4674,432
4675,439
4676,444
4677,444
4678,447
4679,455
4680,455
4681,450
4682,446
4683,455
4684,459
4685,456
4686,460
4687,462
4688,460
4689,455
4690,454
4691,459
4692,460
4693,461
4694,465
4695,462
4696,456
4697,461
4698,469
4699,468
4700,463
4701,466
4702,469
4703,471
4704,477
4705,480
4706,469
4707,462
4708,468
4709,478
4710,487
4711,484
4712,482
4713,483
4714,487
4715,491
4716,493
4717,496
4718,502
4719,506
4720,497
4721,477
4722,471
4723,477
4724,480
4725,481
4726,482
4727,480
4728,476
4729,475
4730,479
4731,490
4732,487
4733,485
4734,487
4735,494
4736,539
4737,650
4738,798
4739,955
4740,997
4741,997
4742,964
4743,644
4744,340
4745,318
4746,386
4747,439
4748,467
4749,472
4750,464
4751,456
4752,463
4753,460
4754,454
4755,453
4756,458
4757,463
4758,469
4759,479
4760,489
4761,488
4762,481
4763,486
4764,500
4765,506
4766,515
4767,521
4768,527
4769,529
4770,533
4771,546
4772,561
4773,567
4774,583
4775,592
4776,598
4777,614
4778,630
4779,638
4780,642
4781,642
4782,643
4783,649
4784,652
4785,639
4786,622
4787,607
4788,590
4789,567
4790,537
4791,505
4792,479
4793,464
4794,449
4795,430
4796,421
4797,411
4798,405
4799,411
4800,408
4801,399
4802,391
4803,390
4804,399
4805,402
4806,399
4807,397
4808,398
4809,407
4810,412
4811,411
4812,412
4813,411
4814,419
4815,428
4816,419
4817,411
4818,419
4819,425
4820,424
4821,429
4822,432
4823,421
4824,423
4825,434
4826,434
4827,437
4828,448
4829,450
4830,449
4831,456
4832,459
4833,461
4834,468
4835,467
4836,462
4837,458
4838,456
4839,454
4840,452
4841,448
4842,445
4843,445
4844,448
4845,449
4846,445
4847,443
4848,453
4849,461
4850,461
4851,462
4852,466
4853,469
4854,472
4855,472
4856,470
4857,473
4858,479
4859,483
4860,485
4861,482
4862,480
4863,479
4864,479
4865,487
4866,492
4867,492
4868,490
4869,488
4870,486
4871,485
4872,489
4873,493
4874,496
4875,501
4876,498
4877,492
4878,496
4879,507
4880,506
4881,505
4882,515
4883,528
4884,529
4885,516
4886,502
4887,498
4888,509
4889,515
4890,505
4891,499
4892,502
4893,507
4894,508
4895,499
4896,496
4897,505
4898,511
4899,505
4900,508
4901,569
4902,689
4903,822
4904,962
4905,998
4906,998
4907,995
4908,782
4909,405
4910,310
4911,391
4912,475
4913,507
4914,504
4915,493
4916,486
4917,483
4918,479
4919,475
4920,475
4921,490
4922,506
4923,504
4924,500
4925,505
4926,511
4927,515
4928,521
4929,531
4930,537
4931,540
4932,540
4933,540
4934,542
4935,548
4936,556
4937,570
4938,585
4939,591
4940,602
4941,617
4942,633
4943,652
4944,667
4945,672
4946,676
4947,682
4948,677
4949,667
4950,668
4951,663
4952,643
4953,620
4954,599
4955,573
4956,543
4957,514
4958,489
4959,482
4960,483
4961,462
4962,440
4963,430
4964,433
4965,430
4966,419
4967,419
4968,429
4969,436
4970,429
4971,421
4972,422
4973,422
4974,426
4975,431
4976,430
4977,434
4978,444
4979,442
4980,439
4981,440
4982,441
4983,438
4984,439
4985,450
4986,444
4987,438
4988,441
4989,443
4990,446
4991,455
4992,458
4993,457
4994,463
4995,466
4996,470
4997,472
4998,474
4999,476
5000,471
5001,468
5002,476
5003,477
5004,469
5005,472
5006,475
5007,474
5008,477
5009,476
5010,469
5011,465
5012,470
5013,478
5014,477
5015,476
5016,475
5017,476
5018,488
5019,490
5020,486
5021,485
5022,489
5023,484
5024,483
5025,487
5026,485
5027,481
5028,476
5029,484
5030,492
5031,488
5032,486
5033,486
5034,480
5035,485
5036,492
5037,486
5038,486
5039,491
5040,493
5041,489
5042,482
5043,477
5044,480
5045,487
5046,483
5047,487
5048,493
5049,484
5050,481
5051,488
5052,491
5053,489
5054,493
5055,502
5056,501
5057,501
5058,509
5059,517
5060,516
5061,520
5062,523
5063,513
5064,504
5065,497
5066,501
5067,505
5068,503
5069,499
5070,504
5071,507
5072,504
5073,505
5074,510
5075,516
5076,518
5077,515
5078,515
5079,544
5080,634
5081,779
5082,949
5083,998
5084,999
5085,998
5086,898
5087,503
5088,337
5089,401
5090,489
5091,525
5092,517
5093,498
5094,494
5095,498
5096,500
5097,503
5098,506
5099,507
5100,509
5101,513
5102,515
5103,522
5104,535
5105,549
5106,548
5107,545
5108,545
5109,543
5110,544
5111,553
5112,563
5113,567
5114,570
5115,579
5116,590
5117,598
5118,614
5119,632
5120,641
5121,655
5122,674
5123,687
5124,689
5125,680
5126,678
5127,690
5128,690
5129,676
5130,664
5131,651
5132,630
5133,602
5134,569
5135,544
5136,525
5137,503
5138,485
5139,472
5140,462
5141,454
5142,445
5143,442
5144,445
5145,440
5146,433
5147,429
5148,434
5149,439
5150,440
5151,442
5152,442
5153,444
5154,449
5155,450
5156,454
5157,454
5158,454
5159,464
5160,461
5161,454
5162,452
5163,458
5164,462
5165,456
5166,455
5167,460
5168,469
5169,464
5170,454
5171,456
5172,471
5173,476
5174,476
5175,481
5176,482
5177,486
5178,489
5179,479
5180,481
5181,489
5182,487
5183,481
5184,474
5185,474
5186,476
5187,477
5188,472
5189,476
5190,489
5191,494
5192,488
5193,485
5194,485
5195,490
5196,495
5197,491
5198,489
5199,493
5200,488
5201,490
5202,496
5203,496
5204,488
5205,484
5206,493
5207,498
5208,501
5209,501
5210,501
5211,504
5212,506
5213,510
5214,504
5215,498
5216,501
5217,503
5218,505
5219,504
5220,500
5221,496
5222,498
5223,502
5224,500
5225,502
5226,501
5227,500
5228,506
5229,514
5230,507
5231,504
5232,506
5233,509
5234,509
5235,514
5236,517
5237,509
5238,507
5239,524
5240,534
5241,532
5242,530
5243,528
5244,519
5245,508
5246,506
5247,505
5248,502
5249,505
5250,506
5251,506
5252,500
5253,497
5254,505
5255,511
5256,508
5257,513
5258,509
5259,512
5260,559
5261,673
5262,816
5263,979
5264,998
5265,999
5266,992
5267,721
5268,382
5269,343
5270,431
5271,499
5272,512
5273,493
5274,485
5275,489
5276,483
5277,478
5278,476
5279,474
5280,474
5281,476
5282,484
5283,495
5284,500
5285,498
5286,501
5287,508
5288,512
5289,515
5290,520
5291,531
5292,539
5293,541
5294,544
5295,554
5296,572
5297,589
5298,595
5299,604
5300,614
5301,625
5302,642
5303,655
5304,661
5305,665
5306,668
5307,670
5308,668
5309,659
5310,642
5311,635
5312,626
5313,603
5314,576
5315,548
5316,522
5317,501
5318,481
5319,464
5320,453
5321,451
5322,449
5323,441
5324,432
5325,426
5326,435
5327,443
5328,441
5329,432
5330,435
5331,445
5332,448
5333,448
5334,451
5335,457
5336,459
5337,459
5338,475
5339,502
5340,523
5341,538
5342,557
5343,567
5344,572
5345,572
5346,582
5347,594
5348,594
5349,588
5350,585
5351,575
5352,563
5353,559
5354,557
5355,548
5356,527
5357,491
5358,485
5359,498
5360,483
5361,461
5362,449
5363,439
5364,429
5365,423
5366,427
5367,429
5368,420
5369,417
5370,424
5371,433
5372,427
5373,420
5374,429
5375,448
5376,459
5377,460
5378,454
5379,440
5380,435
5381,454
5382,472
5383,458
5384,440
5385,447
5386,460
5387,458
5388,448
5389,443
5390,449
5391,454
5392,448
5393,444
5394,452
5395,465
5396,479
5397,479
5398,469
5399,473
5400,498
5401,517
5402,506
5403,488
5404,497
5405,519
5406,517
5407,505
5408,502
5409,512
5410,519
5411,524
5412,530
5413,535
5414,529
5415,525
5416,523
5417,516
5418,504
5419,500
5420,503
5421,502
5422,494
5423,489
5424,488
5425,484
5426,480
5427,477
5428,479
5429,489
5430,488
5431,485
5432,523
5433,613
5434,732
5435,882
5436,986
5437,989
5438,875
5439,538
5440,286
5441,291
5442,373
5443,435
5444,466
5445,472
5446,468
5447,465
5448,462
5449,451
5450,444
5451,442
5452,441
5453,453
5454,477
5455,486
5456,481
5457,488
5458,506
5459,524
5460,542
5461,553
5462,553
5463,550
5464,559
5465,577
5466,577
5467,574
5468,577
5469,599
5470,639
5471,665
5472,669
5473,668
5474,691
5475,729
5476,747
5477,805
5478,922
5479,985
5480,819
5481,247
5482,105
5483,609
5484,964
5485,815
5486,538
5487,391
5488,295
5489,324
5490,554
5491,879
5492,1000
5493,1001
5494,1002
5495,1002
5496,1001
5497,1001
5498,999
5499,994
5500,859
5501,650
5502,541
5503,505
5504,488
5505,463
5506,450
5507,459
5508,465
5509,455
5510,443
5511,448
5512,479
5513,520
5514,525
5515,518
5516,538
5517,550
5518,551
5519,537
5520,497
5521,383
5522,210
5523,0
5524,0
5525,0
5526,0
5527,0
5528,0
5529,0
5530,94
5531,683
5532,963
5533,544
5534,179
5535,163
5536,237
5537,337
5538,576
5539,837
5540,997
5541,1001
5542,1003
5543,1003
5544,1003
5545,1003
5546,1003
5547,1002
5548,1000
5549,770
5550,383
5551,261
5552,346
5553,460
5554,530
5555,548
5556,555
5557,579
5558,589
5559,570
5560,555
5561,558
5562,597
5563,393
5564,0
5565,0
5566,0
5567,0
5568,0
5569,0
5570,0
5571,258
5572,724
5573,533
5574,0
5575,0
5576,0
5577,0
5578,0
5579,0
5580,0
5581,0
5582,58
5583,415
5584,975
5585,1001
5586,1002
5587,1002
5588,1003
5589,1003
5590,1003
5591,1003
5592,1003
5593,891
5594,339
5595,79
5596,127
5597,297
5598,410
5599,465
5600,499
5601,504
5602,468
5603,412
5604,363
5605,314
5606,257
5607,219
5608,125
5609,0
5610,0
5611,0
5612,0
5613,0
5614,0
5615,0
5616,0
5617,0
5618,0
5619,0
5620,52
5621,314
5622,304
5623,0
5624,0
5625,0
5626,0
5627,0
5628,0
5629,0
5630,21
5631,304
5632,859
5633,1001
5634,1002
5635,1003
5636,1003
5637,1003
5638,1002
5639,995
5640,712
5641,336
5642,213
5643,285
5644,387
5645,421
5646,428
5647,467
5648,525
5649,575
5650,585
5651,560
5652,496
5653,416
5654,349
5655,311
5656,295
5657,285
5658,284
5659,274
5660,252
5661,227
5662,241
5663,369
5664,311
5665,104
5666,0
5667,0
5668,0
5669,0
5670,0
5671,130
5672,449
5673,171
5674,0
5675,0
5676,0
5677,0
5678,0
5679,0
5680,0
5681,0
5682,65
5683,466
5684,997
5685,1001
5686,1001
5687,999
5688,912
5689,662
5690,539
5691,551
5692,562
5693,517
5694,456
5695,436
5696,462
5697,507
5698,532
5699,550
5700,559
5701,540
5702,509
5703,468
5704,436
5705,399
5706,340
5707,272
5708,211
5709,154
5710,102
5711,93
5712,111
5713,175
5714,571
5715,789
5716,140
5717,0
5718,0
5719,0
5720,0
5721,0
5722,94
5723,453
5724,396
5725,0
5726,0
5727,1
5728,85
5729,219
5730,409
5731,742
5732,998
5733,1000
5734,1001
5735,1002
5736,1003
5737,1003
5738,1003
5739,1003
5740,1000
5741,690
5742,221
5743,45
5744,48
5745,148
5746,318
5747,465
5748,553
5749,600
5750,664
5751,773
5752,901
5753,996
5754,998
5755,999
5756,984
5757,629
5758,270
5759,231
5760,330
5761,441
5762,487
5763,489
5764,483
5765,483
5766,489
5767,485
5768,486
5769,517
5770,559
5771,578
5772,588
5773,606
5774,642
5775,665
5776,658
5777,644
5778,642
5779,645
5780,655
5781,674
5782,672
5783,653
5784,651
5785,664
5786,656
5787,641
5788,637
5789,628
5790,597
5791,566
5792,551
5793,540
5794,544
5795,545
5796,536
5797,536
5798,541
5799,541
5800,554
5801,559
5802,542
5803,523
5804,523
5805,525
5806,518
5807,515
5808,515
5809,512
5810,504
5811,525
5812,578
5813,601
5814,605
5815,633
5816,667
5817,690
5818,684
5819,671
5820,668
5821,641
5822,616
5823,607
5824,590
5825,567
5826,544
5827,524
5828,518
5829,510
5830,498
5831,485
5832,474
5833,474
5834,492
5835,512
5836,518
5837,508
5838,496
5839,491
5840,478
5841,462
5842,440
5843,444
5844,466
5845,473
5846,456
5847,431
5848,410
5849,402
5850,409
5851,420
5852,424
5853,401
5854,371
5855,342
5856,337
5857,353
5858,343
5859,330
5860,319
5861,311
5862,311
5863,307
5864,297
5865,282
5866,273
5867,259
5868,244
5869,223
5870,196
5871,171
5872,164
5873,166
5874,138
5875,100
5876,72
5877,55
5878,40
5879,22
5880,14
5881,20
5882,26
5883,21
5884,9
5885,0
5886,0
5887,4
5888,28
5889,66
5890,79
5891,72
5892,74
5893,86
5894,98
5895,108
5896,108
5897,99
5898,97
5899,102
5900,117
5901,135
5902,148
5903,170
5904,198
5905,212
5906,240
5907,335
5908,483
5909,622
5910,793
5911,925
5912,911
5913,706
5914,367
5915,242
5916,331
5917,428
5918,476
5919,485
5920,468
5921,441
5922,434
5923,431
5924,424
5925,408
5926,389
5927,375
5928,365
5929,349
5930,341
5931,341
5932,344
5933,335
5934,312
5935,286
5936,262
5937,253
5938,250
5939,239
5940,231
5941,227
5942,225
5943,227
5944,238
5945,262
5946,294
5947,319
5948,315
5949,321
5950,351
5951,367
5952,373
5953,378
5954,393
5955,403
5956,398
5957,364
5958,351
5959,341
5960,324
5961,312
5962,273
5963,258
5964,266
5965,267
5966,275
5967,293
5968,311
5969,325
5970,345
5971,366
5972,383
5973,395
5974,409
5975,429
5976,445
5977,458
5978,472
5979,495
5980,511
5981,513
5982,531
5983,544
5984,545
5985,539
5986,539
5987,547
5988,560
5989,566
5990,573
5991,580
5992,592
5993,596
5994,599
5995,601
5996,602
5997,601
5998,617
5999,640
6000,640
6001,636
6002,640
6003,635
6004,628
6005,626
6006,618
6007,606
6008,599
6009,589
6010,585
6011,588
6012,585
6013,572
6014,563
6015,565
6016,563
6017,553
6018,541
6019,532
6020,518
6021,510
6022,508
6023,499
6024,504
6025,527
6026,533
6027,527
6028,530
6029,553
6030,570
6031,560
6032,544
6033,551
6034,569
6035,583
6036,577
6037,581
6038,599
6039,618
6040,633
6041,655
6042,679
6043,699
6044,726
6045,748
6046,769
6047,843
6048,967
6049,998
6050,1000
6051,1002
6052,1002
6053,998
6054,876
6055,666
6056,614
6057,666
6058,721
6059,733
6060,724
6061,713
6062,705
6063,707
6064,714
6065,717
6066,716
6067,717
6068,720
6069,725
6070,733
6071,732
6072,732
6073,733
6074,728
6075,723
6076,721
6077,718
6078,713
6079,712
6080,717
6081,719
6082,723
6083,734
6084,750
6085,767
6086,785
6087,788
6088,776
6089,785
6090,801
6091,788
6092,771
6093,767
6094,761
6095,748
6096,738
6097,719
6098,687
6099,657
6100,632
6101,603
6102,577
6103,572
6104,571
6105,563
6106,555
6107,553
6108,548
6109,549
6110,557
6111,554
6112,544
6113,538
6114,539
6115,539
6116,541
6117,544
6118,548
6119,559
6120,572
6121,565
6122,563
6123,573
6124,566
6125,544
6126,531
6127,526
6128,525
6129,528
6130,539
6131,549
6132,555
6133,550
6134,548
6135,564
6136,578
6137,580
6138,580
6139,581
6140,584
6141,587
6142,589
6143,591
6144,591
6145,584
6146,576
6147,569
6148,564
6149,564
6150,568
6151,559
6152,548
6153,554
6154,559
6155,554
6156,553
6157,552
6158,556
6159,554
6160,545
6161,542
6162,541
6163,535
6164,527
6165,530
6166,547
6167,558
6168,545
6169,548
6170,567
6171,560
6172,540
6173,533
6174,538
6175,540
6176,535
6177,534
6178,534
6179,537
6180,533
6181,525
6182,517
6183,527
6184,547
6185,548
6186,549
6187,596
6188,702
6189,829
6190,973
6191,997
6192,998
6193,987
6194,697
6195,379
6196,355
6197,429
6198,488
6199,513
6200,516
6201,509
6202,500
6203,501
6204,507
6205,509
6206,505
6207,505
6208,514
6209,522
6210,526
6211,527
6212,526
6213,532
6214,538
6215,538
6216,539
6217,540
6218,539
6219,535
6220,541
6221,555
6222,567
6223,581
6224,591
6225,600
6226,618
6227,641
6228,660
6229,673
6230,682
6231,692
6232,698
6233,699
6234,692
6235,682
6236,665
6237,644
6238,616
6239,576
6240,540
6241,504
6242,474
6243,449
6244,428
6245,410
6246,395
6247,380
6248,375
6249,374
6250,362
6251,358
6252,361
6253,363
6254,354
6255,355
6256,362
6257,359
6258,364
6259,380
6260,387
6261,391
6262,400
6263,405
6264,406
6265,416
6266,429
6267,427
6268,421
6269,422
6270,425
6271,425
6272,420
6273,413
6274,416
6275,429
6276,435
6277,438
6278,444
6279,449
6280,453
6281,459
6282,472
6283,475
6284,475
6285,478
6286,480
6287,472
6288,462
6289,458
6290,456
6291,449
6292,436
6293,430
6294,432
6295,430
6296,427
6297,425
6298,429
6299,430
6300,424
6301,422
6302,424
6303,426
6304,429
6305,427
6306,421
6307,417
6308,415
6309,418
6310,425
6311,420
6312,418
6313,424
6314,427
6315,429
6316,430
6317,441
6318,448
6319,448
6320,448
6321,458
6322,472
6323,477
6324,477
6325,487
6326,492
6327,487
6328,475
6329,467
6330,464
6331,469
6332,475
6333,477
6334,483
6335,487
6336,485
6337,477
6338,478
6339,490
6340,494
6341,483
6342,493
6343,568
6344,700
6345,847
6346,987
6347,996
6348,994
6349,871
6350,494
6351,291
6352,337
6353,426
6354,467
6355,465
6356,454
6357,456
6358,468
6359,462
6360,450
6361,459
6362,462
6363,455
6364,452
6365,461
6366,469
6367,475
6368,479
6369,483
6370,485
6371,481
6372,478
6373,481
6374,485
6375,479
6376,475
6377,494
6378,523
6379,534
6380,539
6381,555
6382,572
6383,586
6384,606
6385,626
6386,636
6387,645
6388,654
6389,664
6390,666
6391,657
6392,646
6393,629
6394,602
6395,578
6396,562
6397,538
6398,509
6399,485
6400,466
6401,453
6402,447
6403,444
6404,432
6405,425
6406,429
6407,432
6408,429
6409,428
6410,424
6411,427
6412,434
6413,432
6414,429
6415,429
6416,433
6417,438
6418,445
6419,444
6420,447
6421,450
6422,454
6423,459
6424,457
6425,455
6426,452
6427,449
6428,447
6429,447
6430,447
6431,451
6432,451
6433,449
6434,452
6435,470
6436,480
6437,474
6438,476
6439,482
6440,485
6441,487
6442,495
6443,495
6444,485
6445,475
6446,481
6447,485
6448,472
6449,463
6450,460
6451,465
6452,463
6453,459
6454,454
6455,462
6456,480
6457,487
6458,483
6459,488
6460,497
6461,503
6462,513
6463,519
6464,521
6465,522
6466,521
6467,520
6468,525
6469,528
6470,523
6471,526
6472,530
6473,527
6474,520
6475,517
6476,519
6477,521
6478,516
6479,513
6480,515
6481,507
6482,503
6483,503
6484,503
6485,503
6486,496
6487,500
6488,513
6489,516
6490,509
6491,501
6492,504
6493,514
6494,518
6495,512
6496,509
6497,525
6498,531
6499,531
6500,528
6501,520
6502,512
6503,504
6504,505
6505,506
6506,499
6507,495
6508,498
6509,505
6510,506
6511,504
6512,500
6513,498
6514,501
6515,509
6516,501
6517,520
6518,599
6519,727
6520,867
6521,993
6522,998
6523,998
6524,949
6525,578
6526,319
6527,332
6528,433
6529,493
6530,500
6531,488
6532,479
6533,480
6534,485
6535,477
6536,465
6537,480
6538,498
6539,493
6540,488
6541,493
6542,505
6543,509
6544,509
6545,516
6546,522
6547,524
6548,522
6549,529
6550,537
6551,540
6552,551
6553,565
6554,568
6555,575
6556,588
6557,608
6558,624
6559,633
6560,645
6561,653
6562,669
6563,686
6564,692
6565,688
6566,677
6567,668
6568,666
6569,649
6570,619
6571,585
6572,559
6573,542
6574,517
6575,495
6576,476
6577,462
6578,458
6579,454
6580,446
6581,440
6582,438
6583,439
6584,438
6585,435
6586,433
6587,432
6588,432
6589,426
6590,424
6591,440
6592,447
6593,435
6594,421
6595,431
6596,437
6597,432
6598,425
6599,425
6600,422
6601,414
6602,412
6603,416
6604,416
6605,414
6606,409
6607,407
6608,423
6609,435
6610,437
6611,441
6612,452
6613,464
6614,470
6615,480
6616,486
6617,480
6618,485
6619,495
6620,476
6621,458
6622,459
6623,473
6624,474
6625,465
6626,461
6627,467
6628,474
6629,476
6630,476
6631,479
6632,475
6633,472
6634,479
6635,489
6636,484
6637,482
6638,481
6639,483
6640,489
6641,489
6642,490
6643,487
6644,489
6645,498
6646,502
6647,499
6648,496
6649,496
6650,500
6651,503
6652,498
6653,494
6654,498
6655,502
6656,500
6657,501
6658,504
6659,501
6660,498
6661,501
6662,503
6663,500
6664,507
6665,500
6666,495
6667,495
6668,495
6669,496
6670,490
6671,490
6672,493
6673,494
6674,505
6675,510
6676,509
6677,506
6678,500
6679,507
6680,513
6681,515
6682,520
6683,526
6684,529
6685,532
6686,526
6687,517
6688,505
6689,506
6690,511
6691,509
6692,506
6693,506
6694,505
6695,501
6696,498
6697,503
6698,501
6699,496
6700,498
6701,504
6702,535
6703,618
6704,741
6705,910
6706,998
6707,998
6708,998
6709,867
6710,473
6711,318
6712,384
6713,477
6714,511
6715,501
6716,488
6717,488
6718,483
6719,481
6720,483
6721,482
6722,484
6723,491
6724,494
6725,496
6726,509
6727,519
6728,527
6729,524
6730,521
6731,528
6732,535
6733,535
6734,533
6735,533
6736,537
6737,544
6738,554
6739,570
6740,589
6741,603
6742,616
6743,618
6744,623
6745,634
6746,654
6747,668
6748,671
6749,669
6750,670
6751,667
6752,657
6753,651
6754,639
6755,613
6756,582
6757,560
6758,538
6759,508
6760,489
6761,477
6762,465
6763,458
6764,455
6765,449
6766,448
6767,445
6768,443
6769,443
6770,446
6771,449
6772,440
6773,437
6774,440
6775,437
6776,441
6777,445
6778,450
6779,448
6780,449
6781,455
6782,462
6783,464
6784,462
6785,456
6786,448
6787,443
6788,453
6789,457
6790,454
6791,460
6792,457
6793,453
6794,455
6795,461
6796,467
6797,471
6798,473
6799,477
6800,477
6801,471
6802,466
6803,464
6804,468
6805,467
6806,459
6807,455
6808,456
6809,448
6810,443
6811,443
6812,439
6813,435
6814,434
6815,440
6816,445
6817,443
6818,451
6819,465
6820,464
6821,453
6822,456
6823,470
6824,479
6825,476
6826,470
6827,472
6828,476
6829,482
6830,483
6831,476
6832,479
6833,489
6834,486
6835,477
6836,481
6837,480
6838,474
6839,475
6840,475
6841,476
6842,480
6843,475
6844,474
6845,473
6846,469
6847,468
6848,472
6849,479
6850,486
6851,485
6852,479
6853,481
6854,498
6855,504
6856,497
6857,495
6858,491
6859,492
6860,498
6861,503
6862,506
6863,507
6864,508
6865,513
6866,523
6867,523
6868,519
6869,520
6870,518
6871,508
6872,498
6873,497
6874,499
6875,501
6876,503
6877,501
6878,499
6879,501
6880,501
6881,506
6882,524
6883,522
6884,515
6885,561
6886,673
6887,821
6888,985
6889,998
6890,999
6891,989
6892,695
6893,386
6894,351
6895,422
6896,487
6897,509
6898,504
6899,501
6900,499
6901,497
6902,499
6903,501
6904,499
6905,503
6906,513
6907,516
6908,518
6909,523
6910,532
6911,534
6912,533
6913,532
6914,538
6915,546
6916,554
6917,558
6918,561
6919,568
6920,572
6921,584
6922,601
6923,615
6924,630
6925,642
6926,659
6927,673
6928,669
6929,661
6930,659
6931,657
6932,652
6933,649
6934,655
6935,656
6936,650
6937,645
6938,631
6939,604
6940,579
6941,559
6942,542
6943,523
6944,510
6945,502
6946,492
6947,483
6948,476
6949,460
6950,445
6951,445
6952,449
6953,443
6954,435
6955,433
6956,430
6957,427
6958,439
6959,442
6960,434
6961,432
6962,434
6963,432
6964,443
6965,459
6966,449
6967,438
6968,439
6969,446
6970,450
6971,449
6972,460
6973,471
6974,467
6975,463
6976,460
6977,463
6978,467
6979,467
6980,469
6981,474
6982,473
6983,469
6984,468
6985,465
6986,462
6987,465
6988,469
6989,465
6990,459
6991,458
6992,463
6993,457
6994,454
6995,466
6996,471
6997,465
6998,460
6999,461
7000,470
7001,477
7002,476
7003,474
7004,479
7005,477
7006,476
7007,481
7008,481
7009,485
7010,483
7011,477
7012,485
7013,492
7014,492
7015,487
7016,485
7017,489
7018,496
7019,495
7020,499
7021,506
7022,503
7023,501
7024,502
7025,503
7026,496
7027,492
7028,501
7029,512
7030,522
7031,529
7032,521
7033,516
7034,519
7035,508
7036,500
7037,493
7038,495
7039,511
7040,512
7041,502
7042,489
7043,491
7044,497
7045,500
7046,501
7047,502
7048,510
7049,536
7050,595
7051,686
7052,821
7053,950
7054,993
7055,973
7056,722
7057,380
7058,309
7059,385
7060,446
7061,488
7062,505
7063,502
7064,487
7065,476
7066,471
7067,475
7068,498
7069,514
7070,511
7071,507
7072,511
7073,516
7074,508
7075,504
7076,513
7077,517
7078,518
7079,524
7080,526
7081,523
7082,518
7083,523
7084,543
7085,557
7086,562
7087,568
7088,581
7089,601
7090,615
7091,626
7092,639
7093,651
7094,649
7095,644
7096,649
7097,646
7098,641
7099,632
7100,620
7101,604
7102,578
7103,544
7104,512
7105,494
7106,479
7107,460
7108,443
7109,421
7110,401
7111,399
7112,416
7113,416
7114,401
7115,395
7116,395
7117,400
7118,409
7119,411
7120,406
7121,411
7122,423
7123,426
7124,425
7125,427
7126,440
7127,443
7128,437
7129,439
7130,446
7131,454
7132,458
7133,458
7134,462
7135,468
7136,470
7137,462
7138,463
7139,469
7140,477
7141,483
7142,479
7143,472
7144,473
7145,482
7146,483
7147,471
7148,470
7149,476
7150,479
7151,474
7152,468
7153,471
7154,476
7155,474
7156,483
7157,492
7158,492
7159,487
7160,486
7161,485
7162,489
7163,497
7164,505
7165,507
7166,511
7167,508
7168,508
7169,511
7170,508
7171,504
7172,504
7173,505
7174,505
7175,507
7176,508
7177,512
7178,510
7179,509
7180,498
7181,488
7182,490
7183,493
7184,490
7185,498
7186,508
7187,504
7188,498
7189,495
7190,500
7191,505
7192,522
7193,533
7194,532
7195,562
7196,642
7197,760
7198,904
7199,990
7200,992
7201,907
7202,580
7203,329
7204,352
7205,433
7206,479
7207,506
7208,520
7209,518
7210,510
7211,509
7212,511
7213,515
7214,519
7215,518
7216,518
7217,529
7218,532
7219,529
7220,526
7221,528
7222,533
7223,527
7224,519
7225,530
7226,545
7227,548
7228,549
7229,557
7230,569
7231,581
7232,589
7233,603
7234,630
7235,646
7236,648
7237,654
7238,665
7239,672
7240,673
7241,672
7242,675
7243,674
7244,660
7245,641
7246,631
7247,604
7248,571
7249,539
7250,510
7251,482
7252,454
7253,429
7254,421
7255,424
7256,416
7257,408
7258,406
7259,396
7260,390
7261,403
7262,407
7263,400
7264,397
7265,395
7266,399
7267,407
7268,417
7269,428
7270,427
7271,420
7272,425
7273,425
7274,418
7275,425
7276,436
7277,440
7278,440
7279,440
7280,441
7281,446
7282,456
7283,457
7284,457
7285,457
7286,458
7287,462
7288,465
7289,466
7290,464
7291,464
7292,464
7293,467
7294,470
7295,467
7296,461
7297,458
7298,459
7299,457
7300,459
7301,460
7302,457
7303,457
7304,457
7305,456
7306,462
7307,465
7308,464
7309,458
7310,456
7311,461
7312,473
7313,486
7314,495
7315,490
7316,486
7317,499
7318,512
7319,513
7320,507
7321,510
7322,516
7323,519
7324,525
7325,532
7326,533
7327,523
7328,516
7329,513
7330,512
7331,501
7332,500
7333,511
7334,510
7335,508
7336,506
7337,505
7338,500
7339,508
7340,535
7341,554
7342,550
7343,579
7344,679
7345,819
7346,979
7347,997
7348,999
7349,996
7350,825
7351,459
7352,359
7353,411
7354,475
7355,514
7356,523
7357,523
7358,525
7359,530
7360,536
7361,537
7362,539
7363,542
7364,543
7365,553
7366,566
7367,562
7368,555
7369,561
7370,565
7371,560
7372,556
7373,555
7374,559
7375,562
7376,555
7377,550
7378,555
7379,569
7380,587
7381,610
7382,631
7383,649
7384,659
7385,668
7386,677
7387,683
7388,693
7389,694
7390,683
7391,675
7392,659
7393,631
7394,612
7395,592
7396,560
7397,527
7398,496
7399,469
7400,440
7401,416
7402,403
7403,389
7404,381
7405,379
7406,369
7407,359
7408,359
7409,358
7410,351
7411,352
7412,361
7413,357
7414,346
7415,352
7416,367
7417,367
7418,363
7419,376
7420,387
7421,390
7422,398
7423,401
7424,395
7425,394
7426,403
7427,416
7428,414
7429,416
7430,434
7431,443
7432,451
7433,449
7434,456
7435,471
7436,485
7437,488
7438,489
7439,488
7440,488
7441,497
7442,499
7443,478
7444,465
7445,478
7446,484
7447,475
7448,462
7449,454
7450,458
7451,469
7452,481
7453,482
7454,472
7455,464
7456,458
7457,467
7458,478
7459,476
7460,469
7461,470
7462,487
7463,494
7464,489
7465,477
7466,466
7467,469
7468,472
7469,472
7470,474
7471,473
7472,479
7473,482
7474,481
7475,490
7476,503
7477,509
7478,503
7479,499
7480,506
7481,505
7482,495
7483,486
7484,475
7485,478
7486,496
7487,504
7488,501
7489,499
7490,496
7491,499
7492,508
7493,523
7494,524
7495,524
7496,567
7497,680
7498,818
7499,968
7500,997
7501,998
7502,992
7503,752
7504,416
7505,347
7506,411
7507,491
7508,537
7509,533
7510,514
7511,508
7512,507
7513,505
7514,506
7515,510
7516,514
7517,518
7518,521
7519,527
7520,530
7521,535
7522,537
7523,539
7524,547
7525,572
7526,587
7527,583
7528,578
7529,576
7530,586
7531,599
7532,607
7533,619
7534,629
7535,638
7536,643
7537,646
7538,657
7539,686
7540,716
7541,732
7542,728
7543,726
7544,729
7545,732
7546,727
7547,711
7548,690
7549,663
7550,635
7551,603
7552,569
7553,537
7554,519
7555,510
7556,501
7557,488
7558,467
7559,451
7560,451
7561,456
7562,447
7563,439
7564,439
7565,433
7566,423
7567,412
7568,413
7569,433
7570,447
7571,441
7572,429
7573,425
7574,427
7575,430
7576,435
7577,435
7578,428
7579,421
7580,420
7581,429
7582,431
7583,423
7584,417
7585,422
7586,445
7587,459
7588,456
7589,448
7590,445
7591,449
7592,464
7593,473
7594,466
7595,453
7596,452
7597,466
7598,481
7599,479
7600,470
7601,464
7602,455
7603,450
7604,457
7605,469
7606,469
7607,462
7608,457
7609,455
7610,455
7611,461
7612,463
7613,458
7614,455
7615,469
7616,474
7617,470
7618,468
7619,468
7620,464
7621,470
7622,486
7623,486
7624,474
7625,466
7626,472
7627,478
7628,475
7629,477
7630,490
7631,491
7632,467
7633,469
7634,516
7635,549
7636,549
7637,527
7638,508
7639,500
7640,495
7641,495
7642,498
7643,492
7644,483
7645,482
7646,485
7647,493
7648,492
7649,472
7650,456
7651,451
7652,448
7653,441
7654,472
7655,575
7656,722
7657,905
7658,997
7659,998
7660,997
7661,858
7662,500
7663,377
7664,428
7665,494
7666,522
7667,507
7668,475
7669,449
7670,433
7671,420
7672,411
7673,415
7674,424
7675,441
7676,464
7677,493
7678,519
7679,537
7680,556
7681,579
7682,599
7683,609
7684,610
7685,597
7686,574
7687,560
7688,556
7689,564
7690,570
7691,574
7692,585
7693,601
7694,622
7695,638
7696,639
7697,629
7698,623
7699,635
7700,636
7701,614
7702,609
7703,613
7704,582
7705,548
7706,537
7707,523
7708,487
7709,444
7710,423
7711,463
7712,506
7713,267
7714,0
7715,0
7716,0
7717,0
7718,0
7719,0
7720,0
7721,238
7722,738
7723,891
7724,887
7725,806
7726,754
7727,964
7728,1001
7729,1003
7730,1003
7731,1003
7732,1003
7733,1003
7734,1003
7735,1003
7736,1003
7737,1002
7738,999
7739,798
7740,351
7741,113
7742,104
7743,226
7744,374
7745,463
7746,499
7747,522
7748,535
7749,537
7750,529
7751,510
7752,508
7753,567
7754,663
7755,750
7756,719
7757,566
7758,436
7759,359
7760,308
7761,267
7762,222
7763,214
7764,399
7765,288
7766,0
7767,0
7768,0
7769,0
7770,0
7771,0
7772,0
7773,0
7774,0
7775,0
7776,0
7777,0
7778,0
7779,60
7780,323
7781,609
7782,736
7783,917
7784,998
7785,996
7786,944
7787,827
7788,883
7789,997
7790,998
7791,993
7792,932
7793,753
7794,557
7795,407
7796,281
7797,196
7798,242
7799,353
7800,446
7801,522
7802,595
7803,675
7804,675
7805,603
7806,519
7807,441
7808,371
7809,339
7810,348
7811,352
7812,324
7813,311
7814,309
7815,307
7816,316
7817,323
7818,313
7819,311
7820,322
7821,317
7822,287
7823,292
7824,366
7825,461
7826,581
7827,713
7828,768
7829,626
7830,243
7831,0
7832,0
7833,0
7834,0
7835,0
7836,0
7837,0
7838,0
7839,25
7840,223
7841,448
7842,499
7843,472
7844,466
7845,517
7846,588
7847,629
7848,638
7849,637
7850,644
7851,670
7852,698
7853,692
7854,672
7855,680
7856,712
7857,737
7858,738
7859,734
7860,750
7861,775
7862,791
7863,791
7864,815
7865,838
7866,821
7867,797
7868,800
7869,797
7870,792
7871,779
7872,768
7873,773
7874,777
7875,775
7876,766
7877,763
7878,767
7879,754
7880,712
7881,666
7882,633
7883,608
7884,576
7885,548
7886,544
7887,529
7888,490
7889,467
7890,465
7891,445
7892,414
7893,392
7894,389
7895,381
7896,372
7897,378
7898,402
7899,424
7900,452
7901,459
7902,476
7903,525
7904,560
7905,587
7906,596
7907,587
7908,583
7909,578
7910,552
7911,520
7912,517
7913,505
7914,479
7915,464
7916,476
7917,494
7918,499
7919,489
7920,483
7921,492
7922,503
7923,503
7924,514
7925,538
7926,546
7927,540
7928,528
7929,531
7930,537
7931,527
7932,511
7933,493
7934,511
7935,534
7936,541
7937,539
7938,548
7939,576
7940,620
7941,665
7942,684
7943,686
7944,692
7945,712
7946,745
7947,754
7948,740
7949,715
7950,694
7951,688
7952,675
7953,667
7954,668
7955,664
7956,647
7957,642
7958,636
7959,634
7960,625
7961,610
7962,602
7963,609
7964,606
7965,592
7966,598
7967,611
7968,617
7969,622
7970,617
7971,608
7972,604
7973,597
7974,594
7975,598
7976,586
7977,573
7978,574
7979,601
7980,684
7981,825
7982,990
7983,998
7984,999
7985,992
7986,715
7987,418
7988,396
7989,477
7990,536
7991,556
7992,543
7993,519
7994,502
7995,496
7996,500
7997,500
7998,492
7999,484
8000,486
8001,510
8002,528
8003,523
8004,509
8005,498
8006,485
8007,474
8008,477
8009,480
8010,476
8011,479
8012,484
8013,492
8014,499
8015,511
8016,546
8017,581
8018,607
8019,620
8020,621
8021,618
8022,614
8023,612
8024,624
8025,631
8026,614
8027,593
8028,578
8029,562
8030,538
8031,520
8032,496
8033,455
8034,413
8035,384
8036,363
8037,349
8038,345
8039,340
8040,304
8041,243
8042,185
8043,145
8044,103
8045,46
8046,0
8047,0
8048,0
8049,0
8050,0
8051,0
8052,0
8053,0
8054,0
8055,0
8056,0
8057,0
8058,0
8059,0
8060,0
8061,0
8062,0
8063,0
8064,0
8065,0
8066,0
8067,0
8068,0
8069,0
8070,0
8071,0
8072,0
8073,0
8074,0
8075,0
8076,0
8077,0
8078,0
8079,0
8080,0
8081,0
8082,0
8083,0
8084,0
8085,0
8086,0
8087,0
8088,0
8089,0
8090,11
8091,64
8092,105
8093,124
8094,137
8095,165
8096,191
8097,213
8098,228
8099,253
8100,288
8101,306
8102,307
8103,318
8104,338
8105,365
8106,384
8107,405
8108,424
8109,439
8110,452
8111,470
8112,492
8113,512
8114,522
8115,531
8116,543
8117,551
8118,559
8119,572
8120,574
8121,585
8122,609
8123,610
8124,603
8125,609
8126,614
8127,611
8128,610
8129,614
8130,618
8131,622
8132,631
8133,643
8134,649
8135,650
8136,655
8137,658
8138,653
8139,650
8140,653
8141,660
8142,649
8143,637
8144,672
8145,756
8146,889
8147,995
8148,998
8149,996
8150,855
8151,464
8152,303
8153,359
8154,419
8155,460
8156,491
8157,500
8158,483
8159,472
8160,468
8161,465
8162,468
8163,471
8164,461
8165,457
8166,467
8167,470
8168,466
8169,468
8170,472
8171,474
8172,475
8173,476
8174,473
8175,474
8176,481
8177,495
8178,515
8179,520
8180,526
8181,544
8182,560
8183,572
8184,587
8185,603
8186,613
8187,619
8188,618
8189,617
8190,630
8191,635
8192,608
8193,578
8194,551
8195,533
8196,518
8197,488
8198,448
8199,415
8200,398
8201,392
8202,383
8203,373
8204,367
8205,364
8206,362
8207,372
8208,385
8209,389
8210,391
8211,394
8212,400
8213,407
8214,410
8215,410
8216,413
8217,419
8218,419
8219,414
8220,414
8221,412
8222,407
8223,404
8224,417
8225,422
8226,411
8227,403
8228,409
8229,420
8230,430
8231,433
8232,423
8233,427
8234,435
8235,433
8236,434
8237,442
8238,456
8239,461
8240,451
8241,449
8242,458
8243,466
8244,464
8245,456
8246,463
8247,461
8248,449
8249,439
8250,431
8251,432
8252,438
8253,442
8254,448
8255,448
8256,451
8257,466
8258,483
8259,478
8260,473
8261,477
8262,484
8263,495
8264,492
8265,489
8266,489
8267,492
8268,499
8269,496
8270,480
8271,479
8272,486
8273,485
8274,478
8275,482
8276,506
8277,513
8278,511
8279,511
8280,506
8281,501
8282,494
8283,490
8284,501
8285,506
8286,498
8287,486
8288,488
8289,504
8290,509
8291,502
8292,499
8293,497
8294,502
8295,507
8296,510
8297,561
8298,676
8299,822
8300,977
8301,997
8302,997
8303,945
8304,595
8305,329
8306,341
8307,430
8308,494
8309,502
8310,489
8311,493
8312,495
8313,486
8314,480
8315,479
8316,480
8317,488
8318,495
8319,496
8320,499
8321,502
8322,503
8323,505
8324,501
8325,494
8326,497
8327,500
8328,495
8329,486
8330,484
8331,488
8332,500
8333,516
8334,532
8335,552
8336,567
8337,566
8338,581
8339,610
8340,626
8341,628
8342,632
8343,636
8344,635
8345,624
8346,608
8347,593
8348,572
8349,542
8350,509
8351,482
8352,459
8353,431
8354,409
8355,399
8356,402
8357,396
8358,382
8359,388
8360,390
8361,382
8362,386
8363,392
8364,398
8365,398
8366,393
8367,393
8368,396
8369,394
8370,392
8371,396
8372,400
8373,406
8374,406
8375,396
8376,396
8377,407
8378,416
8379,412
8380,404
8381,409
8382,426
8383,435
8384,437
8385,431
8386,435
8387,463
8388,481
8389,479
8390,484
8391,509
8392,524
8393,523
8394,525
8395,536
8396,543
8397,547
8398,553
8399,566
8400,572
8401,570
8402,568
8403,572
8404,568
8405,567
8406,575
8407,585
8408,588
8409,601
8410,605
8411,599
8412,604
8413,616
8414,618
8415,617
8416,624
8417,623
8418,620
8419,616
8420,616
8421,617
8422,616
8423,621
8424,622
8425,616
8426,619
8427,628
8428,626
8429,622
8430,618
8431,620
8432,628
8433,628
8434,627
8435,630
8436,631
8437,634
8438,639
8439,630
8440,625
8441,625
8442,630
8443,637
8444,632
8445,621
8446,620
8447,631
8448,640
8449,647
8450,646
8451,637
8452,626
8453,619
8454,620
8455,620
8456,618
8457,619
8458,612
8459,606
8460,602
8461,598
8462,599
8463,598
8464,597
8465,598
8466,596
8467,589
8468,619
8469,722
8470,870
8471,995
8472,999
8473,1000
8474,999
8475,920
8476,550
8477,391
8478,435
8479,525
8480,561
8481,554
8482,547
8483,542
8484,536
8485,533
8486,528
8487,532
8488,541
8489,548
8490,545
8491,549
8492,555
8493,556
8494,560
8495,571
8496,571
8497,564
8498,558
8499,558
8500,576
8501,582
8502,575
8503,585
8504,604
8505,613
8506,622
8507,638
8508,653
8509,665
8510,681
8511,691
8512,692
8513,698
8514,712
8515,711
8516,704
8517,695
8518,684
8519,675
8520,665
8521,648
8522,621
8523,585
8524,559
8525,542
8526,524
8527,516
8528,514
8529,499
8530,487
8531,488
8532,484
8533,486
8534,486
8535,486
8536,481
8537,475
8538,469
8539,469
8540,468
8541,468
8542,471
8543,471
8544,468
8545,475
8546,480
8547,480
8548,480
8549,480
8550,489
8551,496
8552,491
8553,481
8554,481
8555,486
8556,488
8557,493
8558,483
8559,473
8560,471
8561,480
8562,479
8563,476
8564,479
8565,479
8566,475
8567,468
8568,464
8569,467
8570,465
8571,460
8572,460
8573,456
8574,449
8575,450
8576,450
8577,446
8578,443
8579,447
8580,446
8581,441
8582,438
8583,433
8584,428
8585,428
8586,432
8587,437
8588,437
8589,427
8590,421
8591,429
8592,432
8593,428
8594,426
8595,426
8596,432
8597,438
8598,428
8599,413
8600,428
8601,447
8602,434
8603,422
8604,425
8605,423
8606,423
8607,429
8608,436
8609,435
8610,426
8611,423
8612,427
8613,435
8614,435
8615,426
8616,420
8617,416
8618,415
8619,426
8620,438
8621,435
8622,428
8623,427
8624,431
8625,422
8626,422
8627,424
8628,413
8629,410
8630,411
8631,417
8632,426
8633,425
8634,420
8635,420
8636,420
8637,418
8638,428
8639,430
8640,451
8641,522
8642,643
8643,804
8644,970
8645,997
8646,995
8647,870
8648,472
8649,268
8650,308
8651,402
8652,463
8653,474
8654,462
8655,455
8656,456
8657,459
8658,466
8659,463
8660,462
8661,469
8662,481
8663,492
8664,496
8665,499
8666,502
8667,510
8668,522
8669,525
8670,526
8671,537
8672,539
8673,537
8674,546
8675,559
8676,571
8677,580
8678,593
8679,610
8680,625
8681,638
8682,658
8683,675
8684,680
8685,681
8686,683
8687,689
8688,695
8689,689
8690,681
8691,664
8692,638
8693,614
8694,595
8695,574
8696,543
8697,509
8698,485
8699,477
8700,469
8701,457
8702,460
8703,463
8704,453
8705,442
8706,440
8707,448
8708,456
8709,462
8710,453
8711,441
8712,441
8713,445
8714,451
8715,452
8716,448
8717,449
8718,459
8719,460
8720,453
8721,455
8722,469
8723,469
8724,459
8725,458
8726,470
8727,475
8728,478
8729,480
8730,476
8731,480
8732,491
8733,500
8734,502
8735,503
8736,501
8737,498
8738,492
8739,498
8740,502
8741,494
8742,488
8743,490
8744,500
8745,501
8746,490
8747,490
8748,499
8749,504
8750,500
8751,493
8752,499
8753,521
8754,522
8755,510
8756,508
8757,513
8758,508
8759,501
8760,507
8761,508
8762,513
8763,518
8764,518
8765,513
8766,511
8767,511
8768,499
8769,493
8770,500
8771,507
8772,501
8773,493
8774,492
8775,498
8776,507
8777,508
8778,514
8779,519
8780,517
8781,511
8782,511
8783,516
8784,520
8785,527
8786,530
8787,522
8788,517
8789,517
8790,503
8791,487
8792,489
8793,507
8794,515
8795,506
8796,500
8797,497
8798,493
8799,492
8800,505
8801,510
8802,516
8803,520
8804,524
8805,565
8806,666
8807,799
8808,945
8809,995
8810,996
8811,928
8812,583
8813,349
8814,380
8815,452
8816,495
8817,524
8818,535
8819,530
8820,520
8821,515
8822,514
8823,521
8824,525
8825,528
8826,527
8827,525
8828,532
8829,532
8830,522
8831,516
8832,512
8833,516
8834,515
8835,514
8836,520
8837,525
8838,527
8839,531
8840,538
8841,552
8842,574
8843,594
8844,600
8845,615
8846,630
8847,638
8848,641
8849,648
8850,660
8851,670
8852,672
8853,659
8854,648
8855,645
8856,647
8857,627
8858,593
8859,562
8860,537
8861,513
8862,496
8863,484
8864,470
8865,456
8866,447
8867,443
8868,444
8869,447
8870,442
8871,441
8872,445
8873,434
8874,437
8875,444
8876,449
8877,456
8878,459
8879,457
8880,461
8881,467
8882,464
8883,462
8884,459
8885,455
8886,456
8887,468
8888,472
8889,467
8890,467
8891,479
8892,487
8893,485
8894,480
8895,482
8896,486
8897,483
8898,486
8899,492
8900,497
8901,493
8902,486
8903,484
8904,490
8905,491
8906,491
8907,494
8908,499
8909,495
8910,491
8911,491
8912,492
8913,496
8914,493
8915,489
8916,505
8917,518
8918,509
8919,499
8920,502
8921,512
8922,514
8923,513
8924,511
8925,511
8926,514
8927,514
8928,511
8929,515
8930,523
8931,539
8932,548
8933,543
8934,532
8935,518
8936,507
8937,501
8938,501
8939,502
8940,501
8941,496
8942,494
8943,496
8944,492
8945,487
8946,497
8947,518
8948,517
8949,518
8950,517
8951,519
8952,563
8953,661
8954,796
8955,950
8956,995
8957,995
8958,910
8959,553
8960,303
8961,318
8962,407
8963,468
8964,487
8965,489
8966,484
8967,475
8968,479
8969,492
8970,501
8971,506
8972,513
8973,517
8974,517
8975,531
8976,546
8977,551
8978,554
8979,556
8980,562
8981,574
8982,587
8983,599
8984,605
8985,610
8986,611
8987,625
8988,651
8989,684
8990,726
8991,764
8992,795
8993,816
8994,836
8995,854
8996,866
8997,876
8998,883
8999,875
9000,873
9001,862
9002,844
9003,839
9004,815
9005,764
9006,713
9007,671
9008,643
9009,630
9010,621
9011,616
9012,612
9013,610
9014,606
9015,600
9016,592
9017,601
9018,612
9019,599
9020,585
9021,589
9022,600
9023,601
9024,598
9025,602
9026,606
9027,609
9028,613
9029,612
9030,611
9031,615
9032,619
9033,619
9034,612
9035,616
9036,616
9037,617
9038,612
9039,612
9040,613
9041,622
9042,621
9043,613
9044,608
9045,607
9046,605
9047,601
9048,604
9049,599
9050,590
9051,583
9052,572
9053,561
9054,550
9055,542
9056,544
9057,546
9058,539
9059,529
9060,529
9061,528
9062,521
9063,524
9064,523
9065,525
9066,529
9067,525
9068,520
9069,514
9070,517
9071,527
9072,516
9073,508
9074,519
9075,523
9076,512
9077,500
9078,490
9079,493
9080,501
9081,501
9082,492
9083,486
9084,480
9085,483
9086,489
9087,481
9088,477
9089,476
9090,471
9091,473
9092,475
9093,483
9094,487
9095,483
9096,475
9097,463
9098,457
9099,456
9100,450
9101,446
9102,453
9103,452
9104,445
9105,445
9106,445
9107,447
9108,447
9109,450
9110,455
9111,446
9112,455
9113,526
9114,659
9115,812
9116,958
9117,995
9118,991
9119,842
9120,461
9121,254
9122,277
9123,351
9124,404
9125,423
9126,412
9127,396
9128,388
9129,387
9130,387
9131,379
9132,379
9133,384
9134,387
9135,392
9136,399
9137,403
9138,408
9139,417
9140,429
9141,435
9142,446
9143,453
9144,449
9145,454
9146,472
9147,494
9148,503
9149,510
9150,523
9151,538
9152,558
9153,572
9154,583
9155,592
9156,602
9157,607
9158,615
9159,621
9160,620
9161,611
9162,602
9163,588
9164,573
9165,554
9166,527
9167,498
9168,467
9169,445
9170,431
9171,420
9172,403
9173,385
9174,388
9175,389
9176,383
9177,382
9178,383
9179,381
9180,380
9181,382
9182,382
9183,386
9184,388
9185,386
9186,389
9187,382
9188,378
9189,387
9190,403
9191,401
9192,389
9193,388
9194,395
9195,399
9196,391
9197,381
9198,387
9199,399
9200,401
9201,402
9202,397
9203,405
9204,419
9205,420
9206,421
9207,424
9208,423
9209,413
9210,413
9211,421
9212,416
9213,409
9214,412
9215,418
9216,415
9217,417
9218,418
9219,419
9220,426
9221,430
9222,429
9223,428
9224,438
9225,454
9226,461
9227,457
9228,455
9229,462
9230,471
9231,471
9232,467
9233,473
9234,482
9235,484
9236,475
9237,469
9238,469
9239,464
9240,461
9241,479
9242,484
9243,474
9244,470
9245,479
9246,487
9247,488
9248,486
9249,485
9250,490
9251,496
9252,494
9253,487
9254,477
9255,485
9256,508
9257,518
9258,511
9259,509
9260,509
9261,502
9262,495
9263,483
9264,483
9265,491
9266,492
9267,489
9268,488
9269,492
9270,505
9271,512
9272,512
9273,504
9274,503
9275,511
9276,514
9277,541
9278,637
9279,774
9280,930
9281,997
9282,998
9283,997
9284,848
9285,457
9286,313
9287,370
9288,456
9289,503
9290,509
9291,488
9292,475
9293,477
9294,474
9295,469
9296,481
9297,485
9298,479
9299,478
9300,487
9301,495
9302,495
9303,494
9304,487
9305,485
9306,481
9307,479
9308,475
9309,473
9310,482
9311,503
9312,524
9313,536
9314,547
9315,560
9316,576
9317,595
9318,623
9319,641
9320,645
9321,655
9322,666
9323,665
9324,663
9325,662
9326,663
9327,656
9328,626
9329,597
9330,577
9331,555
9332,533
9333,509
9334,492
9335,478
9336,464
9337,455
9338,449
9339,441
9340,440
9341,451
9342,455
9343,441
9344,429
9345,422
9346,419
9347,420
9348,418
9349,416
9350,420
9351,431
9352,434
9353,429
9354,426
9355,435
9356,445
9357,447
9358,436
9359,425
9360,421
9361,423
9362,426
9363,432
9364,430
9365,423
9366,425
9367,442
9368,451
9369,441
