389
385
386
390
392
386
383
389
400
409
414
423
415
399
397
413
409
402
403
409
408
404
410
422
428
426
430
443
473
553
669
811
915
941
852
578
318
294
366
423
452
464
466
460
455
461
464
467
471
476
476
473
477
491
506
504
500
509
518
520
528
542
548
557
569
583
597
611
621
634
649
660
665
665
665
668
671
664
646
624
603
580
552
528
513
499
483
476
473
464
460
461
458
456
463
468
462
454
457
461
461
461
466
475
472
468
477
487
486
480
483
491
494
496
491
493
496
499
504
505
503
502
501
499
502
508
506
505
505
503
513
514
505
498
496
500
508
512
509
499
497
504
507
504
508
510
512
515
509
506
509
516
521
520
513
511
513
517
518
511
509
511
511
510
516
518
510
512
519
514
506
512
522
515
501
504
515
517
517
518
514
513
515
519
525
526
518
515
525
528
530
540
545
535
523
513
501
500
516
528
522
513
508
515
518
514
522
526
541
601
714
849
971
994
988
839
503
332
372
460
507
511
505
501
495
494
498
502
506
508
503
500
511
524
520
512
515
530
537
534
530
538
553
561
568
581
597
607
617
628
639
649
660
662
658
653
652
651
641
625
611
581
547
533
525
497
464
445
443
441
434
433
431
428
429
433
434
422
419
436
440
438
435
434
439
441
439
442
447
443
441
442
447
450
445
442
446
455
456
457
462
460
464
468
467
471
481
478
468
468
471
478
480
476
480
474
465
472
482
476
469
469
472
474
473
475
481
476
471
481
488
487
481
477
478
489
493
488
482
484
490
495
495
491
486
484
488
496
496
491
496
497
496
498
499
499
498
501
504
501
499
500
507
511
506
501
507
510
514
505
499
508
518
521
523
525
529
525
516
509
505
500
499
504
506
503
496
497
499
493
503
522
517
550
653
777
906
989
991
920
627
349
330
421
489
501
491
482
477
485
496
498
496
497
503
508
510
513
521
529
531
528
530
543
560
564
563
565
572
586
599
610
619
625
634
642
648
657
662
663
663
654
639
632
630
613
582
553
528
506
488
469
455
449
441
431
424
427
431
429
434
430
427
431
434
428
420
423
434
436
432
438
444
438
431
444
460
452
444
452
462
460
457
462
468
468
468
475
476
470
473
480
475
478
488
487
476
466
469
478
484
478
472
477
479
477
475
475
476
482
487
478
476
486
488
485
488
493
498
492
484
487
492
491
491
495
491
489
489
493
500
499
499
507
507
496
495
502
506
506
507
511
514
515
513
513
515
515
519
519
511
506
523
531
530
529
532
532
524
519
520
514
503
502
508
509
506
512
515
513
524
530
528
561
655
774
911
992
994
945
667
389
358
428
493
521
526
521
508
504
509
519
524
519
517
520
524
529
535
539
542
546
554
562
567
568
573
586
599
611
620
629
639
652
664
665
667
678
684
685
693
695
690
676
666
658
632
598
569
547
529
508
488
476
472
469
460
452
448
452
460
456
444
439
449
454
449
444
444
444
441
439
442
453
466
466
461
454
447
458
474
470
459
461
469
472
471
472
467
458
463
479
482
471
466
470
474
469
473
477
475
472
473
474
472
468
475
484
480
473
470
474
487
488
483
480
474
472
477
485
483
485
486
479
482
495
496
489
484
488
494
499
505
509
508
503
497
488
483
483
487
488
487
478
481
496
492
482
496
517
529
565
642
751
878
949
948
806
493
311
362
431
461
482
498
501
494
492
495
494
492
495
504
509
507
509
517
522
521
533
543
548
551
557
565
571
578
589
602
611
619
628
640
645
648
664
672
664
655
650
641
628
617
600
573
541
511
485
462
448
442
438
426
421
428
428
418
417
421
424
422
420
423
424
420
418
423
423
424
427
432
435
438
436
437
448
454
453
453
448
449
459
463
459
464
467
462
462
462
469
470
462
468
477
468
455
465
482
481
471
469
476
478
478
483
483
473
470
480
481
481
488
490
485
483
488
488
487
486
491
494
498
501
505
511
508
493
492
495
491
486
488
487
485
486
489
489
486
491
506
505
518
584
689
804
920
975
961
786
465
322
370
431
476
497
498
488
487
499
498
489
491
506
508
502
510
519
517
518
527
531
531
539
551
558
559
569
586
593
598
610
625
639
644
648
656
661
661
662
660
651
636
627
613
585
551
527
508
486
465
457
451
437
431
433
430
424
419
423
433
433
426
427
431
426
424
432
439
443
446
440
438
441
447
451
449
451
457
456
453
454
461
461
460
466
468
461
465
478
480
470
464
469
474
467
464
470
472
467
466
469
466
465
464
461
466
473
471
464
468
475
473
470
464
470
480
485
477
467
474
482
481
483
484
480
474
482
499
507
507
506
506
494
483
483
492
490
482
477
483
491
489
487
490
499
505
506
537
628
755
890
982
987
925
672
376
312
378
456
501
502
487
480
476
474
486
498
496
492
500
505
506
507
512
514
517
524
534
537
535
549
561
562
575
591
597
601
609
622
638
652
655
657
656
652
649
647
637
619
596
575
551
524
496
469
459
460
452
443
431
421
424
436
435
424
426
434
434
430
428
424
418
430
449
448
436
434
446
451
446
440
445
448
445
448
451
445
442
456
471
470
463
465
469
469
468
472
477
476
476
477
471
469
474
476
465
457
469
481
475
469
476
481
481
477
479
476
474
480
492
492
481
476
476
486
487
489
491
492
491
494
498
493
495
504
501
492
500
507
509
515
515
518
526
529
521
513
497
490
499
506
496
491
508
516
503
494
500
513
512
531
601
708
822
944
994
987
831
493
322
359
440
488
499
496
488
480
482
487
488
494
498
496
496
497
498
513
523
521
521
526
530
534
542
554
567
572
575
583
600
615
621
625
643
655
646
650
664
656
639
632
630
614
587
557
533
509
487
467
453
448
440
429
427
431
428
423
425
427
425
426
429
426
422
425
425
432
437
434
431
431
433
443
447
443
448
453
446
439
445
455
456
456
458
460
464
467
475
477
474
467
473
475
473
472
477
471
464
473
484
481
473
472
479
478
478
485
490
479
474
481
486
483
486
489
490
486
487
491
488
481
483
494
494
488
484
488
490
495
503
505
501
496
498
502
501
502
507
511
515
520
516
505
496
491
492
493
499
498
494
492
493
494
495
497
506
521
560
652
772
915
993
992
910
596
338
333
416
489
512
499
486
485
490
497
501
499
501
507
515
516
511
520
536
538
530
537
550
558
556
559
572
579
582
592
607
616
617
618
631
640
633
630
625
617
618
622
609
585
562
548
535
508
483
461
440
432
438
433
420
415
419
420
420
420
424
430
427
420
424
433
433
429
432
440
442
437
443
444
443
444
444
444
447
453
456
455
456
458
465
465
456
459
466
472
468
467
471
471
471
471
469
466
467
473
474
468
466
470
469
472
478
482
477
478
481
479
481
485
486
483
480
478
485
488
483
483
483
481
490
506
507
498
498
498
502
510
513
509
512
524
532
539
539
529
519
513
509
509
514
516
509
506
519
527
521
510
514
534
538
558
633
743
882
987
993
959
697
394
348
413
472
508
517
507
499
507
514
512
510
514
526
529
524
525
526
527
528
536
553
555
555
562
573
578
582
592
602
609
621
638
648
653
658
666
665
663
668
670
655
645
641
627
599
569
542
521
499
478
469
459
440
433
447
452
439
433
442
448
440
433
433
437
441
443
442
438
432
433
447
458
455
455
461
463
462
461
461
464
474
482
477
471
475
481
476
465
468
477
486
488
486
477
471
474
481
484
483
480
479
479
489
500
495
482
480
490
493
494
492
492
499
503
505
508
514
513
503
489
483
483
494
495
486
485
489
491
489
482
493
519
528
539
591
675
788
895
939
906
683
380
317
389
435
469
498
510
502
495
495
489
486
500
513
512
506
512
523
526
524
534
543
548
552
561
568
573
580
592
604
612
623
637
648
651
655
657
654
655
659
657
642
620
611
597
560
527
509
491
471
454
447
436
425
424
424
417
415
422
423
418
417
421
424
424
421
429
438
435
433
441
446
445
444
451
457
452
452
463
465
459
466
477
470
461
461
475
476
468
471
475
473
468
469
473
471
469
474
476
471
475
485
480
473
475
488
495
481
475
482
487
489
492
494
491
485
478
469
468
467
470
470
464
465
479
478
468
470
491
494
500
563
670
793
924
985
958
765
441
308
370
427
459
481
489
485
478
479
481
481
491
503
504
500
503
512
514
514
519
531
535
535
544
550
557
568
584
597
607
614
627
637
643
655
664
667
661
658
657
651
639
625
600
571
548
525
503
481
461
447
441
436
429
431
431
426
429
434
433
430
429
432
431
430
434
437
435
435
441
449
448
446
450
453
452
449
446
443
449
464
474
472
460
458
464
464
462
464
469
470
469
474
477
473
471
473
479
475
472
475
477
474
478
482
489
483
481
488
487
482
482
485
488
490
500
502
501
507
507
496
479
469
476
485
478
471
483
488
479
473
476
492
503
499
528
627
757
895
988
989
928
659
358
305
377
449
483
483
476
474
476
472
473
480
482
482
484
497
501
496
499
511
515
511
511
521
534
541
545
553
562
575
589
599
603
609
636
648
642
638
635
634
632
629
624
603
574
548
523
495
473
459
445
428
421
430
426
411
405
416
423
420
414
414
417
417
417
418
416
417
421
425
422
421
436
445
439
427
427
441
448
442
442
441
440
449
458
455
451
460
466
465
460
460
465
462
461
464
468
464
457
461
465
458
451
463
473
468
468
479
477
470
470
483
488
484
482
485
487
486
487
487
479
478
502
514
503
499
506
504
494
491
489
481
477
482
486
482
482
482
488
485
479
490
502
535
621
747
889
990
992
944
674
369
309
377
448
484
490
485
477
469
475
483
483
483
493
504
505
502
504
517
531
533
528
528
533
542
552
560
565
580
601
609
614
625
639
652
665
668
664
662
661
663
660
644
617
600
581
549
521
506
492
471
456
451
448
447
444
450
446
440
448
448
439
435
445
450
443
437
449
455
447
447
452
452
444
448
455
456
451
454
461
463
462
467
474
467
464
470
479
485
483
486
483
477
480
483
481
477
476
475
476
475
477
483
479
474
477
485
487
486
488
489
489
491
498
495
495
498
493
497
498
492
494
497
495
494
500
503
502
500
503
496
493
508
511
502
499
507
514
514
509
509
509
511
515
517
510
509
515
521
530
535
533
525
512
501
502
506
507
508
515
519
509
501
507
516
516
507
532
623
745
878
993
996
994
843
475
326
380
475
523
514
493
488
489
488
493
501
507
499
497
509
518
520
525
531
531
530
536
547
553
556
566
580
589
593
607
629
640
646
657
672
673
666
669
674
666
661
659
640
620
605
579
548
518
500
494
487
469
454
457
459
453
450
458
455
449
450
446
444
453
454
451
450
455
456
449
446
447
455
463
463
461
460
456
458
465
472
471
469
474
479
478
479
486
489
488
493
493
486
481
481
483
487
484
478
477
481
483
483
488
482
474
482
490
484
475
481
485
476
474
482
474
471
478
486
487
482
479
481
484
489
495
501
495
491
495
498
497
496
497
498
498
496
495
493
495
497
497
491
491
507
511
505
502
504
500
499
508
508
506
507
513
525
531
523
515
508
500
499
502
512
516
505
500
507
510
510
510
517
512
526
597
711
852
989
997
996
886
522
351
385
454
495
501
491
484
489
494
493
489
493
502
504
502
505
515
523
519
525
535
540
542
545
556
565
574
585
595
600
611
633
640
634
642
667
673
667
665
665
659
647
635
621
601
577
552
532
507
487
476
470
462
455
453
451
440
438
453
455
445
443
451
448
448
453
453
449
449
455
457
455
453
459
470
467
464
469
478
479
480
484
480
475
479
488
493
490
485
487
487
486
488
493
492
487
486
485
484
489
496
498
488
485
493
493
489
495
497
489
494
505
509
506
496
495
498
495
500
508
506
501
504
508
505
496
497
507
503
498
505
511
507
500
499
504
506
508
516
518
512
516
517
513
511
515
522
526
521
516
511
496
486
492
504
505
505
502
496
496
502
510
524
524
530
575
654
766
904
989
984
839
519
340
375
432
475
504
507
498
495
496
497
503
511
509
501
503
514
518
521
522
524
535
540
540
551
559
563
573
587
593
593
601
619
636
646
649
648
648
664
677
668
654
646
638
618
587
564
546
522
494
471
461
449
439
432
421
425
437
430
421
417
418
429
435
426
422
428
434
427
426
438
443
440
439
444
451
451
452
457
456
458
462
463
458
456
465
474
467
458
458
468
475
469
468
474
474
469
471
473
468
465
474
480
474
474
477
471
463
474
489
479
471
475
485
485
479
477
473
474
482
490
488
480
475
484
488
487
484
481
485
497
506
507
507
509
507
497
485
480
488
487
484
489
491
488
488
488
492
505
511
517
551
636
743
882
980
983
893
607
350
340
409
458
490
503
496
485
483
486
491
497
496
489
500
517
514
512
517
521
525
534
540
543
549
555
565
578
585
585
599
622
637
643
651
655
658
665
669
668
661
657
652
630
601
577
549
517
493
483
471
453
445
440
436
435
430
430
429
425
428
436
429
418
418
429
434
434
431
430
430
436
442
442
438
445
454
451
444
451
466
466
461
461
464
466
465
467
470
471
469
473
476
470
465
471
479
480
478
478
477
475
473
475
481
480
480
486
485
477
474
478
480
478
481
486
487
488
488
481
481
487
489
489
487
491
497
497
496
495
502
505
499
500
501
492
494
514
524
518
514
517
518
509
499
498
500
495
493
500
498
491
493
499
500
502
507
521
563
659
785
925
993
991
920
635
361
334
412
478
493
481
484
492
486
480
485
490
488
485
488
504
510
505
511
516
511
517
527
529
534
546
549
551
557
565
583
601
613
624
638
645
648
648
652
652
648
639
622
609
594
566
544
527
501
476
457
445
439
430
421
424
430
422
415
418
422
422
419
417
420
420
420
423
427
424
421
427
430
424
433
447
442
432
436
446
448
440
441
451
459
456
457
460
459
455
456
467
471
464
462
464
463
462
462
460
458
458
462
464
463
458
456
469
473
468
467
471
469
467
476
480
470
472
481
473
470
481
486
479
471
469
480
492
487
480
486
493
491
489
486
485
492
503
500
494
493
495
497
494
493
497
506
511
510
509
508
506
505
492
478
486
499
495
490
495
499
492
486
496
510
505
513
576
682
804
942
995
993
905
570
333
346
431
493
512
500
485
482
491
492
496
502
501
500
508
511
512
520
524
527
534
539
539
541
553
563
570
579
585
589
600
614
627
634
646
663
664
655
661
663
654
649
645
632
603
573
547
527
508
484
471
460
443
440
446
442
434
432
432
435
437
433
433
438
438
439
438
434
439
443
447
449
446
444
447
452
457
461
459
451
453
462
466
464
468
467
466
475
481
480
476
474
476
479
479
475
475
480
477
474
474
475
474
479
485
484
478
477
483
493
490
486
488
485
478
482
494
490
492
494
493
492
490
491
497
498
493
491
496
498
501
500
492
495
505
507
500
501
504
505
509
512
516
516
511
509
514
523
535
537
535
527
513
508
514
512
504
504
509
507
502
510
519
511
511
517
531
583
683
807
948
995
995
933
612
364
365
438
494
518
516
507
499
494
494
500
507
512
515
515
513
519
526
532
543
542
540
543
546
551
559
574
591
600
602
601
612
642
659
660
659
661
668
665
661
663
655
644
630
612
588
564
538
518
508
482
461
455
455
451
446
441
435
436
447
449
442
438
448
444
433
439
451
452
444
441
451
460
460
457
460
464
455
455
468
467
459
460
466
470
470
470
474
473
470
477
479
469
467
474
479
466
461
474
473
469
467
472
469
469
479
488
481
473
472
477
482
482
485
484
486
487
488
488
485
486
493
492
481
477
492
502
494
489
492
493
489
496
500
499
501
505
506
498
497
509
514
505
496
504
522
532
532
528
517
510
511
509
505
505
508
511
501
495
500
503
502
507
505
518
574
684
831
977
995
991
841
489
323
373
446
481
492
492
483
474
472
478
482
481
481
487
491
488
489
500
509
504
501
515
534
533
535
544
552
559
571
584
592
602
612
627
642
647
650
650
642
648
657
646
627
609
591
568
540
516
498
483
464
448
441
432
425
429
431
422
420
430
436
437
431
430
434
432
430
438
448
444
443
449
457
460
461
462
457
456
468
473
470
470
471
473
476
479
480
481
478
478
484
482
477
476
479
481
488
491
489
485
479
483
497
494
490
495
494
491
494
504
512
506
502
508
513
508
505
517
520
512
515
517
510
514
526
530
524
527
541
538
519
504
501
507
512
512
506
500
505
513
514
515
524
530
549
600
678
805
942
982
952
767
456
332
386
447
484
508
524
521
508
505
515
521
517
514
519
530
533
530
531
539
543
550
557
561
564
563
570
592
602
601
610
625
635
642
653
669
673
671
670
665
662
667
664
645
621
598
574
546
517
498
482
461
452
456
452
442
433
437
441
435
427
430
439
437
431
438
443
443
449
449
443
441
448
458
461
457
456
465
463
464
472
472
471
476
478
470
460
461
472
481
476
471
477
479
468
472
479
472
471
478
476
468
469
482
485
481
487
487
482
478
485
496
503
503
495
485
472
462
469
482
476
474
473
472
469
469
474
485
495
498
524
581
661
777
897
945
894
659
370
306
379
428
454
475
490
490
489
484
480
486
491
489
489
499
511
512
512
521
531
530
537
546
547
552
563
574
582
589
597
615
632
638
644
649
652
656
660
657
643
637
641
623
589
557
537
515
484
467
466
451
431
426
432
427
418
419
424
423
420
424
429
425
422
423
420
424
440
443
438
436
435
441
451
453
453
457
459
458
460
463
457
457
467
469
461
454
462
472
475
473
467
462
464
470
473
471
472
473
482
484
478
480
486
477
473
489
498
497
497
503
507
497
485
475
474
481
486
481
480
485
489
492
490
483
495
505
519
576
690
829
955
988
966
784
458
313
359
427
468
488
489
483
481
484
485
487
492
497
500
502
505
502
506
521
530
532
535
540
548
557
560
567
578
590
598
608
620
627
639
658
667
665
654
648
652
650
636
620
605
578
542
514
494
470
451
441
441
436
420
417
419
416
414
416
421
414
408
413
420
412
411
427
431
422
419
428
429
428
428
432
434
430
431
437
441
441
446
451
449
446
444
448
458
461
461
461
460
460
460
454
454
461
458
450
450
457
464
466
461
461
461
460
469
481
476
468
464
468
475
477
478
488
492
490
484
475
468
461
459
462
464
462
456
460
468
472
472
482
478
491
564
683
806
935
992
986
850
507
304
328
404
463
492
486
473
470
476
476
483
490
489
485
491
509
514
506
503
522
533
526
525
541
548
550
558
571
580
587
599
621
636
641
655
668
665
660
663
662
652
640
630
612
582
553
532
518
497
471
454
451
452
445
442
435
426
434
446
445
437
428
428
436
443
443
441
438
437
439
443
442
450
446
447
450
446
449
456
458
454
456
463
471
470
467
467
466
469
476
471
467
474
478
472
466
471
479
479
472
469
469
465
462
474
477
468
470
480
480
480
483
484
482
482
487
492
495
492
497
498
492
494
503
505
504
506
513
513
510
509
499
493
494
496
499
500
498
500
502
496
496
515
519
511
558
673
798
925
994
995
963
671
369
331
408
477
506
510
503
491
491
498
502
505
509
513
516
520
524
524
524
532
540
536
530
544
563
561
562
581
599
605
609
622
635
645
657
661
667
670
671
665
660
654
643
630
608
584
557
529
505
492
479
461
455
452
446
443
441
437
444
448
438
437
452
449
431
438
454
449
441
441
446
451
447
445
454
459
450
449
451
446
451
467
470
462
459
468
475
476
477
475
474
470
469
479
484
474
467
476
481
478
478
480
477
475
482
485
485
489
491
492
489
485
489
498
497
491
489
494
500
495
494
497
500
504
504
494
493
500
500
500
505
507
496
490
502
517
516
504
504
508
509
519
533
536
526
523
523
514
505
502
506
513
513
510
513
516
510
510
518
525
526
558
662
796
926
995
997
990
745
400
332
413
485
509
505
499
495
500
503
496
492
501
512
511
508
518
521
521
525
537
539
534
535
549
557
551
562
583
593
605
621
633
642
649
654
657
656
655
664
663
645
631
619
598
571
552
534
510
483
468
460
439
426
440
453
443
430
426
426
423
428
438
437
424
417
423
424
422
432
438
436
429
428
434
436
433
427
428
438
442
437
436
437
441
452
454
448
449
457
457
450
456
468
463
451
450
457
465
461
456
458
457
455
459
466
465
462
464
466
460
459
471
479
467
459
472
481
473
469
481
482
475
472
475
481
481
480
482
483
481
481
482
485
492
497
487
477
488
507
507
503
504
500
483
474
479
485
484
488
488
486
481
481
492
504
510
508
545
641
767
918
995
995
940
625
357
345
415
476
506
501
488
486
495
500
498
501
506
503
504
513
519
516
521
532
541
543
547
552
555
565
581
587
585
595
611
625
636
643
654
666
677
687
692
691
686
682
674
651
620
597
582
552
516
498
492
484
470
460
451
442
439
446
444
436
435
437
438
437
434
435
441
441
437
436
437
442
445
451
460
455
450
459
462
458
459
462
468
475
472
468
466
472
476
468
465
480
491
480
469
463
470
480
479
479
482
481
479
480
479
477
481
481
478
481
484
481
486
488
485
486
493
491
488
495
501
492
489
500
507
504
505
508
505
496
491
492
487
480
485
496
497
489
493
500
497
501
513
528
571
655
775
904
973
966
806
479
315
367
440
473
493
506
502
494
496
498
495
494
503
512
514
512
516
524
526
525
531
537
539
554
568
574
575
582
595
603
610
621
640
656
659
656
667
668
662
666
673
656
631
612
591
558
528
509
495
466
442
443
446
436
427
426
428
428
425
423
420
419
429
430
420
421
429
434
433
433
436
441
443
447
453
455
454
449
455
469
468
459
460
463
467
472
471
469
470
466
470
478
476
470
467
469
475
476
470
467
473
475
476
481
472
474
485
484
482
484
484
483
489
494
488
486
492
501
506
503
503
505
502
492
489
485
481
486
495
491
484
480
485
495
501
511
509
529
610
724
863
978
989
930
674
379
327
400
453
480
495
501
490
482
483
489
499
499
494
499
502
500
509
520
523
520
522
524
531
541
548
557
569
577
586
598
614
628
639
650
654
653
658
670
666
655
652
642
621
593
567
541
514
497
481
460
443
438
435
426
422
430
430
424
417
421
427
425
424
424
420
417
427
437
433
426
433
442
440
436
443
454
454
449
452
453
452
455
461
463
461
461
462
461
470
473
469
467
462
462
466
468
469
465
463
462
466
471
469
460
467
479
473
466
475
489
482
471
473
478
477
473
480
491
488
482
490
496
486
481
491
496
488
487
504
516
512
509
514
510
498
487
487
492
490
485
493
495
493
497
496
491
496
503
531
609
729
