timestamp, value
datetime, int
T,
2015-10-14 17:21:32.879996,389
2015-10-14 17:21:32.886460,385
2015-10-14 17:21:32.892650,386
2015-10-14 17:21:32.899054,390
2015-10-14 17:21:32.905461,392
2015-10-14 17:21:32.911884,386
2015-10-14 17:21:32.918340,383
2015-10-14 17:21:32.924207,389
2015-10-14 17:21:32.930723,400
2015-10-14 17:21:32.936169,409
2015-10-14 17:21:32.942610,414
2015-10-14 17:21:32.947806,423
2015-10-14 17:21:32.952960,415
2015-10-14 17:21:32.959357,399
2015-10-14 17:21:32.965747,397
2015-10-14 17:21:32.971190,413
2015-10-14 17:21:32.976321,409
2015-10-14 17:21:32.982821,402
2015-10-14 17:21:32.989236,403
2015-10-14 17:21:32.994416,409
2015-10-14 17:21:33.000824,408
2015-10-14 17:21:33.006043,404
2015-10-14 17:21:33.012462,410
2015-10-14 17:21:33.017631,422
2015-10-14 17:21:33.023486,428
2015-10-14 17:21:33.029070,426
2015-10-14 17:21:33.035529,430
2015-10-14 17:21:33.040806,443
2015-10-14 17:21:33.047246,473
2015-10-14 17:21:33.052522,553
2015-10-14 17:21:33.058979,669
2015-10-14 17:21:33.064145,811
2015-10-14 17:21:33.070575,915
2015-10-14 17:21:33.077023,941
2015-10-14 17:21:33.083426,852
2015-10-14 17:21:33.089850,578
2015-10-14 17:21:33.095069,318
2015-10-14 17:21:33.100362,294
2015-10-14 17:21:33.106391,366
2015-10-14 17:21:33.112823,423
2015-10-14 17:21:33.118287,452
2015-10-14 17:21:33.124579,464
2015-10-14 17:21:33.131003,466
2015-10-14 17:21:33.137439,460
2015-10-14 17:21:33.143510,455
2015-10-14 17:21:33.149946,461
2015-10-14 17:21:33.156392,464
2015-10-14 17:21:33.162816,467
2015-10-14 17:21:33.168408,471
2015-10-14 17:21:33.174970,476
2015-10-14 17:21:33.180242,476
2015-10-14 17:21:33.185523,473
2015-10-14 17:21:33.191575,477
2015-10-14 17:21:33.197004,491
2015-10-14 17:21:33.203209,506
2015-10-14 17:21:33.209679,504
2015-10-14 17:21:33.214974,500
2015-10-14 17:21:33.220138,509
2015-10-14 17:21:33.226430,518
2015-10-14 17:21:33.232938,520
2015-10-14 17:21:33.238220,528
2015-10-14 17:21:33.244640,542
2015-10-14 17:21:33.249908,548
2015-10-14 17:21:33.255349,557
2015-10-14 17:21:33.261271,569
2015-10-14 17:21:33.267791,583
2015-10-14 17:21:33.273009,597
2015-10-14 17:21:33.279419,611
2015-10-14 17:21:33.284637,621
2015-10-14 17:21:33.289984,634
2015-10-14 17:21:33.296074,649
2015-10-14 17:21:33.301431,660
2015-10-14 17:21:33.307699,665
2015-10-14 17:21:33.313377,665
2015-10-14 17:21:33.319317,665
2015-10-14 17:21:33.324539,668
2015-10-14 17:21:33.330903,671
2015-10-14 17:21:33.337382,664
2015-10-14 17:21:33.342623,646
2015-10-14 17:21:33.349068,624
2015-10-14 17:21:33.354287,603
2015-10-14 17:21:33.359444,580
2015-10-14 17:21:33.365750,552
2015-10-14 17:21:33.372217,528
2015-10-14 17:21:33.377400,513
2015-10-14 17:21:33.382669,499
2015-10-14 17:21:33.389024,483
2015-10-14 17:21:33.394218,476
2015-10-14 17:21:33.400589,473
2015-10-14 17:21:33.407086,464
2015-10-14 17:21:33.412276,460
2015-10-14 17:21:33.417733,461
2015-10-14 17:21:33.424144,458
2015-10-14 17:21:33.430565,456
2015-10-14 17:21:33.437023,463
2015-10-14 17:21:33.442796,468
2015-10-14 17:21:33.449276,462
2015-10-14 17:21:33.455465,454
2015-10-14 17:21:33.462016,457
2015-10-14 17:21:33.468436,461
2015-10-14 17:21:33.474861,461
2015-10-14 17:21:33.481278,461
2015-10-14 17:21:33.487726,466
2015-10-14 17:21:33.493469,475
2015-10-14 17:21:33.498849,472
2015-10-14 17:21:33.505070,468
2015-10-14 17:21:33.511526,477
2015-10-14 17:21:33.516934,487
2015-10-14 17:21:33.523346,486
2015-10-14 17:21:33.528756,480
2015-10-14 17:21:33.533901,483
2015-10-14 17:21:33.539901,491
2015-10-14 17:21:33.546308,494
2015-10-14 17:21:33.551502,496
2015-10-14 17:21:33.557398,491
2015-10-14 17:21:33.563115,493
2015-10-14 17:21:33.569605,496
2015-10-14 17:21:33.574878,499
2015-10-14 17:21:33.581320,504
2015-10-14 17:21:33.586497,505
2015-10-14 17:21:33.592161,503
2015-10-14 17:21:33.597958,502
2015-10-14 17:21:33.603335,501
2015-10-14 17:21:33.609490,499
2015-10-14 17:21:33.614815,502
2015-10-14 17:21:33.621184,508
2015-10-14 17:21:33.627704,506
2015-10-14 17:21:33.632837,505
2015-10-14 17:21:33.639262,505
2015-10-14 17:21:33.644478,503
2015-10-14 17:21:33.649681,513
2015-10-14 17:21:33.656101,514
2015-10-14 17:21:33.662559,505
2015-10-14 17:21:33.667810,498
2015-10-14 17:21:33.673873,496
2015-10-14 17:21:33.679246,500
2015-10-14 17:21:33.685891,508
2015-10-14 17:21:33.691069,512
2015-10-14 17:21:33.696918,509
2015-10-14 17:21:33.702453,499
2015-10-14 17:21:33.708979,497
2015-10-14 17:21:33.714148,504
2015-10-14 17:21:33.719467,507
2015-10-14 17:21:33.725656,504
2015-10-14 17:21:33.732117,508
2015-10-14 17:21:33.737394,510
2015-10-14 17:21:33.743012,512
2015-10-14 17:21:33.748893,515
2015-10-14 17:21:33.755403,509
2015-10-14 17:21:33.760752,506
2015-10-14 17:21:33.767217,509
2015-10-14 17:21:33.773794,516
2015-10-14 17:21:33.780268,521
2015-10-14 17:21:33.786699,520
2015-10-14 17:21:33.793120,513
2015-10-14 17:21:33.799605,511
2015-10-14 17:21:33.806054,513
2015-10-14 17:21:33.812485,517
2015-10-14 17:21:33.818574,518
2015-10-14 17:21:33.825106,511
2015-10-14 17:21:33.830424,509
2015-10-14 17:21:33.836824,511
2015-10-14 17:21:33.842640,511
2015-10-14 17:21:33.849053,510
2015-10-14 17:21:33.854286,516
2015-10-14 17:21:33.859723,518
2015-10-14 17:21:33.865022,510
2015-10-14 17:21:33.871463,512
2015-10-14 17:21:33.876666,519
2015-10-14 17:21:33.882998,514
2015-10-14 17:21:33.888262,506
2015-10-14 17:21:33.893882,512
2015-10-14 17:21:33.899979,522
2015-10-14 17:21:33.906447,515
2015-10-14 17:21:33.911736,501
2015-10-14 17:21:33.918140,504
2015-10-14 17:21:33.924566,515
2015-10-14 17:21:33.930991,517
2015-10-14 17:21:33.936634,517
2015-10-14 17:21:33.942565,518
2015-10-14 17:21:33.949049,514
2015-10-14 17:21:33.955474,513
2015-10-14 17:21:33.961918,515
2015-10-14 17:21:33.968344,519
2015-10-14 17:21:33.973914,525
2015-10-14 17:21:33.980363,526
2015-10-14 17:21:33.986785,518
2015-10-14 17:21:33.992746,515
2015-10-14 17:21:33.999237,525
2015-10-14 17:21:34.004551,528
2015-10-14 17:21:34.010964,530
2015-10-14 17:21:34.016198,540
2015-10-14 17:21:34.022618,545
2015-10-14 17:21:34.028627,535
2015-10-14 17:21:34.033794,523
2015-10-14 17:21:34.039141,513
2015-10-14 17:21:34.045594,501
2015-10-14 17:21:34.050787,500
2015-10-14 17:21:34.057312,516
2015-10-14 17:21:34.062547,528
2015-10-14 17:21:34.068972,522
2015-10-14 17:21:34.074114,513
2015-10-14 17:21:34.079535,508
2015-10-14 17:21:34.085634,515
2015-10-14 17:21:34.092335,518
2015-10-14 17:21:34.097473,514
2015-10-14 17:21:34.103534,522
2015-10-14 17:21:34.108838,526
2015-10-14 17:21:34.115339,541
2015-10-14 17:21:34.120615,601
2015-10-14 17:21:34.126155,714
2015-10-14 17:21:34.132049,849
2015-10-14 17:21:34.138528,971
2015-10-14 17:21:34.143777,994
2015-10-14 17:21:34.149580,988
2015-10-14 17:21:34.155456,839
2015-10-14 17:21:34.161918,503
2015-10-14 17:21:34.167094,332
2015-10-14 17:21:34.172218,372
2015-10-14 17:21:34.178496,460
2015-10-14 17:21:34.184961,507
2015-10-14 17:21:34.190327,511
2015-10-14 17:21:34.196745,505
2015-10-14 17:21:34.201965,501
2015-10-14 17:21:34.208386,495
2015-10-14 17:21:34.213532,494
2015-10-14 17:21:34.219952,498
2015-10-14 17:21:34.226368,502
2015-10-14 17:21:34.232807,506
2015-10-14 17:21:34.238438,508
2015-10-14 17:21:34.244663,503
2015-10-14 17:21:34.249912,500
2015-10-14 17:21:34.256348,511
2015-10-14 17:21:34.261673,524
2015-10-14 17:21:34.268090,520
2015-10-14 17:21:34.273891,512
2015-10-14 17:21:34.279434,515
2015-10-14 17:21:34.285877,530
2015-10-14 17:21:34.292317,537
2015-10-14 17:21:34.298767,534
2015-10-14 17:21:34.305220,530
2015-10-14 17:21:34.311693,538
2015-10-14 17:21:34.317818,553
2015-10-14 17:21:34.324325,561
2015-10-14 17:21:34.329550,568
2015-10-14 17:21:34.335995,581
2015-10-14 17:21:34.342072,597
2015-10-14 17:21:34.347581,607
2015-10-14 17:21:34.352697,617
2015-10-14 17:21:34.359109,628
2015-10-14 17:21:34.364466,639
2015-10-14 17:21:34.370718,649
2015-10-14 17:21:34.376024,660
2015-10-14 17:21:34.382460,662
2015-10-14 17:21:34.387701,658
2015-10-14 17:21:34.394042,653
2015-10-14 17:21:34.400385,652
2015-10-14 17:21:34.406718,651
2015-10-14 17:21:34.411831,641
2015-10-14 17:21:34.417974,625
2015-10-14 17:21:34.423779,611
2015-10-14 17:21:34.428841,581
2015-10-14 17:21:34.433957,547
2015-10-14 17:21:34.439367,533
2015-10-14 17:21:34.445397,525
2015-10-14 17:21:34.450603,497
2015-10-14 17:21:34.456968,464
2015-10-14 17:21:34.462897,445
2015-10-14 17:21:34.468943,443
2015-10-14 17:21:34.474121,441
2015-10-14 17:21:34.480325,434
2015-10-14 17:21:34.486757,433
2015-10-14 17:21:34.491972,431
2015-10-14 17:21:34.497594,428
2015-10-14 17:21:34.503570,429
2015-10-14 17:21:34.510029,433
2015-10-14 17:21:34.515200,434
2015-10-14 17:21:34.521636,422
2015-10-14 17:21:34.526875,419
2015-10-14 17:21:34.533285,436
2015-10-14 17:21:34.539308,440
2015-10-14 17:21:34.545454,438
2015-10-14 17:21:34.550846,435
2015-10-14 17:21:34.557279,434
2015-10-14 17:21:34.563724,439
2015-10-14 17:21:34.570144,441
2015-10-14 17:21:34.576600,439
2015-10-14 17:21:34.583045,442
2015-10-14 17:21:34.589495,447
2015-10-14 17:21:34.595513,443
2015-10-14 17:21:34.601931,441
2015-10-14 17:21:34.608069,442
2015-10-14 17:21:34.614568,447
2015-10-14 17:21:34.619897,450
2015-10-14 17:21:34.626253,445
2015-10-14 17:21:34.631428,442
2015-10-14 17:21:34.637838,446
2015-10-14 17:21:34.643144,455
2015-10-14 17:21:34.649543,456
2015-10-14 17:21:34.654639,457
2015-10-14 17:21:34.660013,462
2015-10-14 17:21:34.666409,460
2015-10-14 17:21:34.671536,464
2015-10-14 17:21:34.677725,468
2015-10-14 17:21:34.684330,467
2015-10-14 17:21:34.689587,471
2015-10-14 17:21:34.696000,481
2015-10-14 17:21:34.701183,478
2015-10-14 17:21:34.707595,468
2015-10-14 17:21:34.712802,468
2015-10-14 17:21:34.718486,471
2015-10-14 17:21:34.724563,478
2015-10-14 17:21:34.730932,480
2015-10-14 17:21:34.736108,476
2015-10-14 17:21:34.742429,480
2015-10-14 17:21:34.749037,474
2015-10-14 17:21:34.755444,465
2015-10-14 17:21:34.760607,472
2015-10-14 17:21:34.767028,482
2015-10-14 17:21:34.773491,476
2015-10-14 17:21:34.779910,469
2015-10-14 17:21:34.786354,469
2015-10-14 17:21:34.792847,472
2015-10-14 17:21:34.799299,474
2015-10-14 17:21:34.805351,473
2015-10-14 17:21:34.811842,475
2015-10-14 17:21:34.817052,481
2015-10-14 17:21:34.823580,476
2015-10-14 17:21:34.828900,471
2015-10-14 17:21:34.835326,481
2015-10-14 17:21:34.840470,488
2015-10-14 17:21:34.846882,487
2015-10-14 17:21:34.852062,481
2015-10-14 17:21:34.858463,477
2015-10-14 17:21:34.863757,478
2015-10-14 17:21:34.870190,489
2015-10-14 17:21:34.875907,493
2015-10-14 17:21:34.882327,488
2015-10-14 17:21:34.888756,482
2015-10-14 17:21:34.894001,484
2015-10-14 17:21:34.900393,490
2015-10-14 17:21:34.905761,495
2015-10-14 17:21:34.912106,495
2015-10-14 17:21:34.918447,491
2015-10-14 17:21:34.924787,486
2015-10-14 17:21:34.931125,484
2015-10-14 17:21:34.937010,488
2015-10-14 17:21:34.943517,496
2015-10-14 17:21:34.949931,496
2015-10-14 17:21:34.956422,491
2015-10-14 17:21:34.962936,496
2015-10-14 17:21:34.968108,497
2015-10-14 17:21:34.973249,496
2015-10-14 17:21:34.979561,498
2015-10-14 17:21:34.985525,499
2015-10-14 17:21:34.991528,499
2015-10-14 17:21:34.997251,498
2015-10-14 17:21:35.002852,501
2015-10-14 17:21:35.009376,504
2015-10-14 17:21:35.014635,501
2015-10-14 17:21:35.021048,499
2015-10-14 17:21:35.026325,500
2015-10-14 17:21:35.032776,507
2015-10-14 17:21:35.039220,511
2015-10-14 17:21:35.045643,506
2015-10-14 17:21:35.052067,501
2015-10-14 17:21:35.058490,507
2015-10-14 17:21:35.063619,510
2015-10-14 17:21:35.070034,514
2015-10-14 17:21:35.076469,505
2015-10-14 17:21:35.081690,499
2015-10-14 17:21:35.087604,508
2015-10-14 17:21:35.094070,518
2015-10-14 17:21:35.100501,521
2015-10-14 17:21:35.106166,523
2015-10-14 17:21:35.111571,525
2015-10-14 17:21:35.117986,529
2015-10-14 17:21:35.124426,525
2015-10-14 17:21:35.130553,516
2015-10-14 17:21:35.137064,509
2015-10-14 17:21:35.143355,505
2015-10-14 17:21:35.149777,500
2015-10-14 17:21:35.156216,499
2015-10-14 17:21:35.161699,504
2015-10-14 17:21:35.168112,506
2015-10-14 17:21:35.174016,503
2015-10-14 17:21:35.180284,496
2015-10-14 17:21:35.186329,497
2015-10-14 17:21:35.192751,499
2015-10-14 17:21:35.197898,493
2015-10-14 17:21:35.204337,503
2015-10-14 17:21:35.210778,522
2015-10-14 17:21:35.217226,517
2015-10-14 17:21:35.223429,550
2015-10-14 17:21:35.229957,653
2015-10-14 17:21:35.235170,777
2015-10-14 17:21:35.241634,906
2015-10-14 17:21:35.246872,989
2015-10-14 17:21:35.252025,991
2015-10-14 17:21:35.258440,920
2015-10-14 17:21:35.264858,627
2015-10-14 17:21:35.270094,349
2015-10-14 17:21:35.276493,330
2015-10-14 17:21:35.281695,421
2015-10-14 17:21:35.288078,489
2015-10-14 17:21:35.293223,501
2015-10-14 17:21:35.299609,491
2015-10-14 17:21:35.304889,482
2015-10-14 17:21:35.311308,477
2015-10-14 17:21:35.316564,485
2015-10-14 17:21:35.322984,496
2015-10-14 17:21:35.328137,498
2015-10-14 17:21:35.334632,496
2015-10-14 17:21:35.341067,497
2015-10-14 17:21:35.346896,503
2015-10-14 17:21:35.352378,508
2015-10-14 17:21:35.358864,510
2015-10-14 17:21:35.364427,513
2015-10-14 17:21:35.370843,521
2015-10-14 17:21:35.377292,529
2015-10-14 17:21:35.383711,531
2015-10-14 17:21:35.390154,528
2015-10-14 17:21:35.396630,530
2015-10-14 17:21:35.403086,543
2015-10-14 17:21:35.409196,560
2015-10-14 17:21:35.415701,564
2015-10-14 17:21:35.421003,563
2015-10-14 17:21:35.426401,565
2015-10-14 17:21:35.432409,572
2015-10-14 17:21:35.438881,586
2015-10-14 17:21:35.444195,599
2015-10-14 17:21:35.450606,610
2015-10-14 17:21:35.456019,619
2015-10-14 17:21:35.461198,625
2015-10-14 17:21:35.467265,634
2015-10-14 17:21:35.473844,642
2015-10-14 17:21:35.480424,648
2015-10-14 17:21:35.486871,657
2015-10-14 17:21:35.493279,662
2015-10-14 17:21:35.499719,663
2015-10-14 17:21:35.505148,663
2015-10-14 17:21:35.511259,654
2015-10-14 17:21:35.517712,639
2015-10-14 17:21:35.524156,632
2015-10-14 17:21:35.530646,630
2015-10-14 17:21:35.536980,613
2015-10-14 17:21:35.543576,582
2015-10-14 17:21:35.550008,553
2015-10-14 17:21:35.556438,528
2015-10-14 17:21:35.562361,506
2015-10-14 17:21:35.567793,488
2015-10-14 17:21:35.573266,469
2015-10-14 17:21:35.579698,455
2015-10-14 17:21:35.586117,449
2015-10-14 17:21:35.591573,441
2015-10-14 17:21:35.598015,431
2015-10-14 17:21:35.605612,424
2015-10-14 17:21:35.612057,427
2015-10-14 17:21:35.618188,431
2015-10-14 17:21:35.624661,429
2015-10-14 17:21:35.629919,434
2015-10-14 17:21:35.636379,430
2015-10-14 17:21:35.642826,427
2015-10-14 17:21:35.649245,431
2015-10-14 17:21:35.655673,434
2015-10-14 17:21:35.661736,428
2015-10-14 17:21:35.668183,420
2015-10-14 17:21:35.673958,423
2015-10-14 17:21:35.680415,434
2015-10-14 17:21:35.686855,436
2015-10-14 17:21:35.692077,432
2015-10-14 17:21:35.697857,438
2015-10-14 17:21:35.703460,444
2015-10-14 17:21:35.708766,438
2015-10-14 17:21:35.714138,431
2015-10-14 17:21:35.719915,444
2015-10-14 17:21:35.725087,460
2015-10-14 17:21:35.730597,452
2015-10-14 17:21:35.735702,444
2015-10-14 17:21:35.740811,452
2015-10-14 17:21:35.746010,462
2015-10-14 17:21:35.752265,460
2015-10-14 17:21:35.758719,457
2015-10-14 17:21:35.764591,462
2015-10-14 17:21:35.770290,468
2015-10-14 17:21:35.776711,468
2015-10-14 17:21:35.783134,468
2015-10-14 17:21:35.788590,475
2015-10-14 17:21:35.794991,476
2015-10-14 17:21:35.801414,470
2015-10-14 17:21:35.806842,473
2015-10-14 17:21:35.813257,480
2015-10-14 17:21:35.819622,475
2015-10-14 17:21:35.825274,478
2015-10-14 17:21:35.831157,488
2015-10-14 17:21:35.837542,487
2015-10-14 17:21:35.843943,476
2015-10-14 17:21:35.850339,466
2015-10-14 17:21:35.856845,469
2015-10-14 17:21:35.862092,478
2015-10-14 17:21:35.868517,484
2015-10-14 17:21:35.873634,478
2015-10-14 17:21:35.879577,472
2015-10-14 17:21:35.885197,477
2015-10-14 17:21:35.891669,479
2015-10-14 17:21:35.896835,477
2015-10-14 17:21:35.902216,475
2015-10-14 17:21:35.908399,475
2015-10-14 17:21:35.914885,476
2015-10-14 17:21:35.920146,482
2015-10-14 17:21:35.925230,487
2015-10-14 17:21:35.931662,478
2015-10-14 17:21:35.937797,476
2015-10-14 17:21:35.943291,486
2015-10-14 17:21:35.948550,488
2015-10-14 17:21:35.954906,485
2015-10-14 17:21:35.961412,488
2015-10-14 17:21:35.966730,493
2015-10-14 17:21:35.973178,498
2015-10-14 17:21:35.979194,492
2015-10-14 17:21:35.985626,484
2015-10-14 17:21:35.990807,487
2015-10-14 17:21:35.997208,492
2015-10-14 17:21:36.003632,491
2015-10-14 17:21:36.008847,491
2015-10-14 17:21:36.014112,495
2015-10-14 17:21:36.020531,491
2015-10-14 17:21:36.026331,489
2015-10-14 17:21:36.032747,489
2015-10-14 17:21:36.039176,493
2015-10-14 17:21:36.045595,500
2015-10-14 17:21:36.052056,499
2015-10-14 17:21:36.058485,499
2015-10-14 17:21:36.064739,507
2015-10-14 17:21:36.071008,507
2015-10-14 17:21:36.077534,496
2015-10-14 17:21:36.082755,495
2015-10-14 17:21:36.088660,502
2015-10-14 17:21:36.094252,506
2015-10-14 17:21:36.100764,506
2015-10-14 17:21:36.106073,507
2015-10-14 17:21:36.112489,511
2015-10-14 17:21:36.117683,514
2015-10-14 17:21:36.123098,515
2015-10-14 17:21:36.129050,513
2015-10-14 17:21:36.134633,513
2015-10-14 17:21:36.141158,515
2015-10-14 17:21:36.147595,515
2015-10-14 17:21:36.153717,519
2015-10-14 17:21:36.159610,519
2015-10-14 17:21:36.164928,511
2015-10-14 17:21:36.171369,506
2015-10-14 17:21:36.177817,523
2015-10-14 17:21:36.184241,531
2015-10-14 17:21:36.190147,530
2015-10-14 17:21:36.196563,529
2015-10-14 17:21:36.203004,532
2015-10-14 17:21:36.209444,532
2015-10-14 17:21:36.215575,524
2015-10-14 17:21:36.221946,519
2015-10-14 17:21:36.228464,520
2015-10-14 17:21:36.233716,514
2015-10-14 17:21:36.238841,503
2015-10-14 17:21:36.245151,502
2015-10-14 17:21:36.250670,508
2015-10-14 17:21:36.257035,509
2015-10-14 17:21:36.263467,506
2015-10-14 17:21:36.269982,512
2015-10-14 17:21:36.276313,515
2015-10-14 17:21:36.281774,513
2015-10-14 17:21:36.287631,524
2015-10-14 17:21:36.294073,530
2015-10-14 17:21:36.300497,528
2015-10-14 17:21:36.306922,561
2015-10-14 17:21:36.313367,655
2015-10-14 17:21:36.318701,774
2015-10-14 17:21:36.324322,911
2015-10-14 17:21:36.329811,992
2015-10-14 17:21:36.335149,994
2015-10-14 17:21:36.341428,945
2015-10-14 17:21:36.347868,667
2015-10-14 17:21:36.354309,389
2015-10-14 17:21:36.359614,358
2015-10-14 17:21:36.365970,428
2015-10-14 17:21:36.372445,493
2015-10-14 17:21:36.378893,521
2015-10-14 17:21:36.384507,526
2015-10-14 17:21:36.391042,521
2015-10-14 17:21:36.396321,508
2015-10-14 17:21:36.402732,504
2015-10-14 17:21:36.409170,509
2015-10-14 17:21:36.414440,519
2015-10-14 17:21:36.419648,524
2015-10-14 17:21:36.426068,519
2015-10-14 17:21:36.431590,517
2015-10-14 17:21:36.438024,520
2015-10-14 17:21:36.444187,524
2015-10-14 17:21:36.449525,529
2015-10-14 17:21:36.455599,535
2015-10-14 17:21:36.462053,539
2015-10-14 17:21:36.468496,542
2015-10-14 17:21:36.474043,546
2015-10-14 17:21:36.479586,554
2015-10-14 17:21:36.486075,562
2015-10-14 17:21:36.491276,567
2015-10-14 17:21:36.497717,568
2015-10-14 17:21:36.503592,573
2015-10-14 17:21:36.510091,586
2015-10-14 17:21:36.515482,599
2015-10-14 17:21:36.520714,611
2015-10-14 17:21:36.527186,620
2015-10-14 17:21:36.533633,629
2015-10-14 17:21:36.540085,639
2015-10-14 17:21:36.545992,652
2015-10-14 17:21:36.551602,664
2015-10-14 17:21:36.558027,665
2015-10-14 17:21:36.563189,667
2015-10-14 17:21:36.569633,678
2015-10-14 17:21:36.575681,684
2015-10-14 17:21:36.581824,685
2015-10-14 17:21:36.588312,693
2015-10-14 17:21:36.593696,695
2015-10-14 17:21:36.598971,690
2015-10-14 17:21:36.604706,676
2015-10-14 17:21:36.611149,666
2015-10-14 17:21:36.616802,658
2015-10-14 17:21:36.623267,632
2015-10-14 17:21:36.628486,598
2015-10-14 17:21:36.634928,569
2015-10-14 17:21:36.640201,547
2015-10-14 17:21:36.646614,529
2015-10-14 17:21:36.653062,508
2015-10-14 17:21:36.659497,488
2015-10-14 17:21:36.665111,476
2015-10-14 17:21:36.670275,472
2015-10-14 17:21:36.675801,469
2015-10-14 17:21:36.681615,460
2015-10-14 17:21:36.688071,452
2015-10-14 17:21:36.694488,448
2015-10-14 17:21:36.700344,452
2015-10-14 17:21:36.706767,460
2015-10-14 17:21:36.713212,456
2015-10-14 17:21:36.719694,444
2015-10-14 17:21:36.726149,439
2015-10-14 17:21:36.732090,449
2015-10-14 17:21:36.738552,454
2015-10-14 17:21:36.744387,449
2015-10-14 17:21:36.749745,444
2015-10-14 17:21:36.756253,444
2015-10-14 17:21:36.761476,444
2015-10-14 17:21:36.767701,441
2015-10-14 17:21:36.774000,439
2015-10-14 17:21:36.779224,442
2015-10-14 17:21:36.785734,453
2015-10-14 17:21:36.791045,466
2015-10-14 17:21:36.797485,466
2015-10-14 17:21:36.803954,461
2015-10-14 17:21:36.810261,454
2015-10-14 17:21:36.815475,447
2015-10-14 17:21:36.821961,458
2015-10-14 17:21:36.828390,474
2015-10-14 17:21:36.834813,470
2015-10-14 17:21:36.841044,459
2015-10-14 17:21:36.846665,461
2015-10-14 17:21:36.853110,469
2015-10-14 17:21:36.858285,472
2015-10-14 17:21:36.863592,471
2015-10-14 17:21:36.869700,472
2015-10-14 17:21:36.875734,467
2015-10-14 17:21:36.882127,458
2015-10-14 17:21:36.887587,463
2015-10-14 17:21:36.894013,479
2015-10-14 17:21:36.899714,482
2015-10-14 17:21:36.906187,471
2015-10-14 17:21:36.911614,466
2015-10-14 17:21:36.917880,470
2015-10-14 17:21:36.924325,474
2015-10-14 17:21:36.930151,469
2015-10-14 17:21:36.935698,473
2015-10-14 17:21:36.941864,477
2015-10-14 17:21:36.948307,475
2015-10-14 17:21:36.953512,472
2015-10-14 17:21:36.959615,473
2015-10-14 17:21:36.964995,474
2015-10-14 17:21:36.971521,472
2015-10-14 17:21:36.976760,468
2015-10-14 17:21:36.982942,475
2015-10-14 17:21:36.988175,484
2015-10-14 17:21:36.994707,480
2015-10-14 17:21:37.000066,473
2015-10-14 17:21:37.006487,470
2015-10-14 17:21:37.011651,474
2015-10-14 17:21:37.016918,487
2015-10-14 17:21:37.023217,488
2015-10-14 17:21:37.028586,483
2015-10-14 17:21:37.034672,480
2015-10-14 17:21:37.041148,474
2015-10-14 17:21:37.046460,472
2015-10-14 17:21:37.052869,477
2015-10-14 17:21:37.058067,485
2015-10-14 17:21:37.063499,483
2015-10-14 17:21:37.069500,485
2015-10-14 17:21:37.074968,486
2015-10-14 17:21:37.081094,479
2015-10-14 17:21:37.087172,482
2015-10-14 17:21:37.092731,495
2015-10-14 17:21:37.099265,496
2015-10-14 17:21:37.104584,489
2015-10-14 17:21:37.110996,484
2015-10-14 17:21:37.116195,488
2015-10-14 17:21:37.122615,494
2015-10-14 17:21:37.127852,499
2015-10-14 17:21:37.134277,505
2015-10-14 17:21:37.140703,509
2015-10-14 17:21:37.147119,508
2015-10-14 17:21:37.153586,503
2015-10-14 17:21:37.160048,497
2015-10-14 17:21:37.166595,488
2015-10-14 17:21:37.173058,483
2015-10-14 17:21:37.179477,483
2015-10-14 17:21:37.185603,487
2015-10-14 17:21:37.192071,488
2015-10-14 17:21:37.197472,487
2015-10-14 17:21:37.203297,478
2015-10-14 17:21:37.208830,481
2015-10-14 17:21:37.215349,496
2015-10-14 17:21:37.220698,492
2015-10-14 17:21:37.227122,482
2015-10-14 17:21:37.233111,496
2015-10-14 17:21:37.239513,517
2015-10-14 17:21:37.245940,529
2015-10-14 17:21:37.252373,565
2015-10-14 17:21:37.258802,642
2015-10-14 17:21:37.265238,751
2015-10-14 17:21:37.271657,878
2015-10-14 17:21:37.278100,949
2015-10-14 17:21:37.283481,948
2015-10-14 17:21:37.289905,806
2015-10-14 17:21:37.295535,493
2015-10-14 17:21:37.301709,311
2015-10-14 17:21:37.308165,362
2015-10-14 17:21:37.313558,431
2015-10-14 17:21:37.319675,461
2015-10-14 17:21:37.324926,482
2015-10-14 17:21:37.331431,498
2015-10-14 17:21:37.336692,501
2015-10-14 17:21:37.343122,494
2015-10-14 17:21:37.348388,492
2015-10-14 17:21:37.354811,495
2015-10-14 17:21:37.361265,494
2015-10-14 17:21:37.366470,492
2015-10-14 17:21:37.371769,495
2015-10-14 17:21:37.377026,504
2015-10-14 17:21:37.382990,509
2015-10-14 17:21:37.388179,507
2015-10-14 17:21:37.394564,509
2015-10-14 17:21:37.401082,517
2015-10-14 17:21:37.406364,522
2015-10-14 17:21:37.412781,521
2015-10-14 17:21:37.417941,533
2015-10-14 17:21:37.424358,543
2015-10-14 17:21:37.429644,548
2015-10-14 17:21:37.436044,551
2015-10-14 17:21:37.441166,557
2015-10-14 17:21:37.447582,565
2015-10-14 17:21:37.452796,571
2015-10-14 17:21:37.459213,578
2015-10-14 17:21:37.464477,589
2015-10-14 17:21:37.470880,602
2015-10-14 17:21:37.476076,611
2015-10-14 17:21:37.481343,619
2015-10-14 17:21:37.487502,628
2015-10-14 17:21:37.493970,640
2015-10-14 17:21:37.500036,645
2015-10-14 17:21:37.506457,648
2015-10-14 17:21:37.511913,664
2015-10-14 17:21:37.517358,672
2015-10-14 17:21:37.522492,664
2015-10-14 17:21:37.528945,655
2015-10-14 17:21:37.535394,650
2015-10-14 17:21:37.540735,641
2015-10-14 17:21:37.545878,628
2015-10-14 17:21:37.552312,617
2015-10-14 17:21:37.558729,600
2015-10-14 17:21:37.565198,573
2015-10-14 17:21:37.571638,541
2015-10-14 17:21:37.577036,511
2015-10-14 17:21:37.582203,485
2015-10-14 17:21:37.588043,462
2015-10-14 17:21:37.593918,448
2015-10-14 17:21:37.599230,442
2015-10-14 17:21:37.605655,438
2015-10-14 17:21:37.610802,426
2015-10-14 17:21:37.616496,421
2015-10-14 17:21:37.622904,428
2015-10-14 17:21:37.629330,428
2015-10-14 17:21:37.635755,418
2015-10-14 17:21:37.642183,417
2015-10-14 17:21:37.648607,421
2015-10-14 17:21:37.655037,424
2015-10-14 17:21:37.661463,422
2015-10-14 17:21:37.668065,420
2015-10-14 17:21:37.673262,423
2015-10-14 17:21:37.679694,424
2015-10-14 17:21:37.684882,420
2015-10-14 17:21:37.691494,418
2015-10-14 17:21:37.697932,423
2015-10-14 17:21:37.703644,423
2015-10-14 17:21:37.710068,424
2015-10-14 17:21:37.716744,427
2015-10-14 17:21:37.721836,432
2015-10-14 17:21:37.727642,435
2015-10-14 17:21:37.733615,438
2015-10-14 17:21:37.740045,436
2015-10-14 17:21:37.746484,437
2015-10-14 17:21:37.751682,448
2015-10-14 17:21:37.758106,454
2015-10-14 17:21:37.764573,453
2015-10-14 17:21:37.771022,453
2015-10-14 17:21:37.777448,448
2015-10-14 17:21:37.783853,449
2015-10-14 17:21:37.789289,459
2015-10-14 17:21:37.795720,463
2015-10-14 17:21:37.800978,459
2015-10-14 17:21:37.807472,464
2015-10-14 17:21:37.812627,467
2015-10-14 17:21:37.819085,462
2015-10-14 17:21:37.824409,462
2015-10-14 17:21:37.830822,462
2015-10-14 17:21:37.837274,469
2015-10-14 17:21:37.843703,470
2015-10-14 17:21:37.850131,462
2015-10-14 17:21:37.856556,468
2015-10-14 17:21:37.862988,477
2015-10-14 17:21:37.869393,468
2015-10-14 17:21:37.875796,455
2015-10-14 17:21:37.882227,465
2015-10-14 17:21:37.888789,482
2015-10-14 17:21:37.894037,481
2015-10-14 17:21:37.900452,471
2015-10-14 17:21:37.905704,469
2015-10-14 17:21:37.912119,476
2015-10-14 17:21:37.917293,478
2015-10-14 17:21:37.922719,478
2015-10-14 17:21:37.928647,483
2015-10-14 17:21:37.935176,483
2015-10-14 17:21:37.940376,473
2015-10-14 17:21:37.946816,470
2015-10-14 17:21:37.952038,480
2015-10-14 17:21:37.958454,481
2015-10-14 17:21:37.963608,481
2015-10-14 17:21:37.970034,488
2015-10-14 17:21:37.975234,490
2015-10-14 17:21:37.981664,485
2015-10-14 17:21:37.986827,483
2015-10-14 17:21:37.993247,488
2015-10-14 17:21:37.998503,488
2015-10-14 17:21:38.004940,487
2015-10-14 17:21:38.010044,486
2015-10-14 17:21:38.015619,491
2015-10-14 17:21:38.021501,494
2015-10-14 17:21:38.027980,498
2015-10-14 17:21:38.033285,501
2015-10-14 17:21:38.039659,505
2015-10-14 17:21:38.044995,511
2015-10-14 17:21:38.051422,508
2015-10-14 17:21:38.057832,493
2015-10-14 17:21:38.063656,492
2015-10-14 17:21:38.069079,495
2015-10-14 17:21:38.074277,491
2015-10-14 17:21:38.079626,486
2015-10-14 17:21:38.086127,488
2015-10-14 17:21:38.091480,487
2015-10-14 17:21:38.097886,485
2015-10-14 17:21:38.104308,486
2015-10-14 17:21:38.110800,489
2015-10-14 17:21:38.116102,489
2015-10-14 17:21:38.122523,486
2015-10-14 17:21:38.127902,491
2015-10-14 17:21:38.134343,506
2015-10-14 17:21:38.139751,505
2015-10-14 17:21:38.146210,518
2015-10-14 17:21:38.152650,584
2015-10-14 17:21:38.159097,689
2015-10-14 17:21:38.165542,804
2015-10-14 17:21:38.171967,920
2015-10-14 17:21:38.178420,975
2015-10-14 17:21:38.184021,961
2015-10-14 17:21:38.190513,786
2015-10-14 17:21:38.195967,465
2015-10-14 17:21:38.202367,322
2015-10-14 17:21:38.207464,370
2015-10-14 17:21:38.212816,431
2015-10-14 17:21:38.218946,476
2015-10-14 17:21:38.225432,497
2015-10-14 17:21:38.230674,498
2015-10-14 17:21:38.236927,488
2015-10-14 17:21:38.243361,487
2015-10-14 17:21:38.249765,499
2015-10-14 17:21:38.255725,498
2015-10-14 17:21:38.262140,489
2015-10-14 17:21:38.268606,491
2015-10-14 17:21:38.274082,506
2015-10-14 17:21:38.279701,508
2015-10-14 17:21:38.285248,502
2015-10-14 17:21:38.291675,510
2015-10-14 17:21:38.298116,519
2015-10-14 17:21:38.303706,517
2015-10-14 17:21:38.310129,518
2015-10-14 17:21:38.316570,527
2015-10-14 17:21:38.323018,531
2015-10-14 17:21:38.329506,531
2015-10-14 17:21:38.334931,539
2015-10-14 17:21:38.341359,551
2015-10-14 17:21:38.346649,558
2015-10-14 17:21:38.353104,559
2015-10-14 17:21:38.358348,569
2015-10-14 17:21:38.364047,586
2015-10-14 17:21:38.369865,593
2015-10-14 17:21:38.375603,598
2015-10-14 17:21:38.381470,610
2015-10-14 17:21:38.387949,625
2015-10-14 17:21:38.393155,639
2015-10-14 17:21:38.399653,644
2015-10-14 17:21:38.404949,648
2015-10-14 17:21:38.411361,656
2015-10-14 17:21:38.416541,661
2015-10-14 17:21:38.422504,661
2015-10-14 17:21:38.427909,662
2015-10-14 17:21:38.433655,660
2015-10-14 17:21:38.439694,651
2015-10-14 17:21:38.446110,636
2015-10-14 17:21:38.451373,627
2015-10-14 17:21:38.456530,613
2015-10-14 17:21:38.462739,585
2015-10-14 17:21:38.469220,551
2015-10-14 17:21:38.474414,527
2015-10-14 17:21:38.480834,508
2015-10-14 17:21:38.486200,486
2015-10-14 17:21:38.492619,465
2015-10-14 17:21:38.497713,457
2015-10-14 17:21:38.503200,451
2015-10-14 17:21:38.509202,437
2015-10-14 17:21:38.515769,431
2015-10-14 17:21:38.520966,433
2015-10-14 17:21:38.526861,430
2015-10-14 17:21:38.532399,424
2015-10-14 17:21:38.538850,419
2015-10-14 17:21:38.543990,423
2015-10-14 17:21:38.550514,433
2015-10-14 17:21:38.555766,433
2015-10-14 17:21:38.562179,426
2015-10-14 17:21:38.567288,427
2015-10-14 17:21:38.573736,431
2015-10-14 17:21:38.579061,426
2015-10-14 17:21:38.584741,424
2015-10-14 17:21:38.590456,432
2015-10-14 17:21:38.596963,439
2015-10-14 17:21:38.602213,443
2015-10-14 17:21:38.608657,446
2015-10-14 17:21:38.613904,440
2015-10-14 17:21:38.619081,438
2015-10-14 17:21:38.625264,441
2015-10-14 17:21:38.631722,447
2015-10-14 17:21:38.636968,451
2015-10-14 17:21:38.642937,449
2015-10-14 17:21:38.648498,451
2015-10-14 17:21:38.654902,457
2015-10-14 17:21:38.660110,456
2015-10-14 17:21:38.666576,453
2015-10-14 17:21:38.671883,454
2015-10-14 17:21:38.678069,461
2015-10-14 17:21:38.683431,461
2015-10-14 17:21:38.689967,460
2015-10-14 17:21:38.695194,466
2015-10-14 17:21:38.701624,468
2015-10-14 17:21:38.706809,461
2015-10-14 17:21:38.713231,465
2015-10-14 17:21:38.718618,478
2015-10-14 17:21:38.725113,480
2015-10-14 17:21:38.731569,470
2015-10-14 17:21:38.737708,464
2015-10-14 17:21:38.744151,469
2015-10-14 17:21:38.750111,474
2015-10-14 17:21:38.756568,467
2015-10-14 17:21:38.763009,464
2015-10-14 17:21:38.769239,470
2015-10-14 17:21:38.775588,472
2015-10-14 17:21:38.781903,467
2015-10-14 17:21:38.787710,466
2015-10-14 17:21:38.794098,469
2015-10-14 17:21:38.799435,466
2015-10-14 17:21:38.805226,465
2015-10-14 17:21:38.811051,464
2015-10-14 17:21:38.817224,461
2015-10-14 17:21:38.822648,466
2015-10-14 17:21:38.829119,473
2015-10-14 17:21:38.834403,471
2015-10-14 17:21:38.840877,464
2015-10-14 17:21:38.846026,468
2015-10-14 17:21:38.851692,475
2015-10-14 17:21:38.857376,473
2015-10-14 17:21:38.863808,470
2015-10-14 17:21:38.869085,464
2015-10-14 17:21:38.874280,470
2015-10-14 17:21:38.879713,480
2015-10-14 17:21:38.885044,485
2015-10-14 17:21:38.891471,477
2015-10-14 17:21:38.897457,467
2015-10-14 17:21:38.903716,474
2015-10-14 17:21:38.910152,482
2015-10-14 17:21:38.915662,481
2015-10-14 17:21:38.922105,483
2015-10-14 17:21:38.927351,484
2015-10-14 17:21:38.933698,480
2015-10-14 17:21:38.940147,474
2015-10-14 17:21:38.945957,482
2015-10-14 17:21:38.952350,499
2015-10-14 17:21:38.958796,507
2015-10-14 17:21:38.965215,507
2015-10-14 17:21:38.970870,506
2015-10-14 17:21:38.976197,506
2015-10-14 17:21:38.982627,494
2015-10-14 17:21:38.989070,483
2015-10-14 17:21:38.994252,483
2015-10-14 17:21:38.999684,492
2015-10-14 17:21:39.006101,490
2015-10-14 17:21:39.012548,482
2015-10-14 17:21:39.018975,477
2015-10-14 17:21:39.025446,483
2015-10-14 17:21:39.031651,491
2015-10-14 17:21:39.038124,489
2015-10-14 17:21:39.043358,487
2015-10-14 17:21:39.049758,490
2015-10-14 17:21:39.054858,499
2015-10-14 17:21:39.061304,505
2015-10-14 17:21:39.066624,506
2015-10-14 17:21:39.071789,537
2015-10-14 17:21:39.078168,628
2015-10-14 17:21:39.084509,755
2015-10-14 17:21:39.089725,890
2015-10-14 17:21:39.095194,982
2015-10-14 17:21:39.101206,987
2015-10-14 17:21:39.107583,925
2015-10-14 17:21:39.112787,672
2015-10-14 17:21:39.118971,376
2015-10-14 17:21:39.124382,312
2015-10-14 17:21:39.130696,378
2015-10-14 17:21:39.136060,456
2015-10-14 17:21:39.142385,501
2015-10-14 17:21:39.147660,502
2015-10-14 17:21:39.153943,487
2015-10-14 17:21:39.159388,480
2015-10-14 17:21:39.165856,476
2015-10-14 17:21:39.171090,474
2015-10-14 17:21:39.177533,486
2015-10-14 17:21:39.182733,498
2015-10-14 17:21:39.189232,496
2015-10-14 17:21:39.194356,492
2015-10-14 17:21:39.200755,500
2015-10-14 17:21:39.206073,505
2015-10-14 17:21:39.212514,506
2015-10-14 17:21:39.218342,507
2015-10-14 17:21:39.224847,512
2015-10-14 17:21:39.231294,514
2015-10-14 17:21:39.236918,517
2015-10-14 17:21:39.243339,524
2015-10-14 17:21:39.248430,534
2015-10-14 17:21:39.254739,537
2015-10-14 17:21:39.259857,535
2015-10-14 17:21:39.266258,549
2015-10-14 17:21:39.271380,561
2015-10-14 17:21:39.277832,562
2015-10-14 17:21:39.283982,575
2015-10-14 17:21:39.290009,591
2015-10-14 17:21:39.296432,597
2015-10-14 17:21:39.302340,601
2015-10-14 17:21:39.307898,609
2015-10-14 17:21:39.314312,622
2015-10-14 17:21:39.320765,638
2015-10-14 17:21:39.327194,652
2015-10-14 17:21:39.333669,655
2015-10-14 17:21:39.340128,657
2015-10-14 17:21:39.345371,656
2015-10-14 17:21:39.351359,652
2015-10-14 17:21:39.356833,649
2015-10-14 17:21:39.363264,647
2015-10-14 17:21:39.368537,637
2015-10-14 17:21:39.373660,619
2015-10-14 17:21:39.379978,596
2015-10-14 17:21:39.385552,575
2015-10-14 17:21:39.391608,551
2015-10-14 17:21:39.398124,524
2015-10-14 17:21:39.403365,496
2015-10-14 17:21:39.409358,469
2015-10-14 17:21:39.414783,459
2015-10-14 17:21:39.421241,460
2015-10-14 17:21:39.426408,452
2015-10-14 17:21:39.431707,443
2015-10-14 17:21:39.438019,431
2015-10-14 17:21:39.444486,421
2015-10-14 17:21:39.449869,424
2015-10-14 17:21:39.455738,436
2015-10-14 17:21:39.461246,435
2015-10-14 17:21:39.466683,424
2015-10-14 17:21:39.472833,426
2015-10-14 17:21:39.479308,434
2015-10-14 17:21:39.484647,434
2015-10-14 17:21:39.489816,430
2015-10-14 17:21:39.496074,428
2015-10-14 17:21:39.502542,424
2015-10-14 17:21:39.507887,418
2015-10-14 17:21:39.513908,430
2015-10-14 17:21:39.520366,449
2015-10-14 17:21:39.526181,448
2015-10-14 17:21:39.531509,436
2015-10-14 17:21:39.537336,434
2015-10-14 17:21:39.542515,446
2015-10-14 17:21:39.547994,451
2015-10-14 17:21:39.554129,446
2015-10-14 17:21:39.560641,440
2015-10-14 17:21:39.565981,445
2015-10-14 17:21:39.572394,448
2015-10-14 17:21:39.578824,445
2015-10-14 17:21:39.584064,448
2015-10-14 17:21:39.589226,451
2015-10-14 17:21:39.595644,445
2015-10-14 17:21:39.601756,442
2015-10-14 17:21:39.608186,456
2015-10-14 17:21:39.614628,471
2015-10-14 17:21:39.620123,470
2015-10-14 17:21:39.626023,463
2015-10-14 17:21:39.632443,465
2015-10-14 17:21:39.638878,469
2015-10-14 17:21:39.645304,469
2015-10-14 17:21:39.651749,468
2015-10-14 17:21:39.657068,472
2015-10-14 17:21:39.663524,477
2015-10-14 17:21:39.668882,476
2015-10-14 17:21:39.675315,476
2015-10-14 17:21:39.681834,477
2015-10-14 17:21:39.688268,471
2015-10-14 17:21:39.693421,469
2015-10-14 17:21:39.699849,474
2015-10-14 17:21:39.705182,476
2015-10-14 17:21:39.711614,465
2015-10-14 17:21:39.716739,457
2015-10-14 17:21:39.723160,469
2015-10-14 17:21:39.728524,481
2015-10-14 17:21:39.734577,475
2015-10-14 17:21:39.739879,469
2015-10-14 17:21:39.746356,476
2015-10-14 17:21:39.751500,481
2015-10-14 17:21:39.758087,481
2015-10-14 17:21:39.763355,477
2015-10-14 17:21:39.768777,479
2015-10-14 17:21:39.774707,476
2015-10-14 17:21:39.781155,474
2015-10-14 17:21:39.786301,480
2015-10-14 17:21:39.792770,492
2015-10-14 17:21:39.797933,492
2015-10-14 17:21:39.804440,481
2015-10-14 17:21:39.809678,476
2015-10-14 17:21:39.815726,476
2015-10-14 17:21:39.821166,486
2015-10-14 17:21:39.827714,487
2015-10-14 17:21:39.833002,489
2015-10-14 17:21:39.839430,491
2015-10-14 17:21:39.844583,492
2015-10-14 17:21:39.850838,491
2015-10-14 17:21:39.855965,494
2015-10-14 17:21:39.862400,498
2015-10-14 17:21:39.867531,493
2015-10-14 17:21:39.873993,495
2015-10-14 17:21:39.879199,504
2015-10-14 17:21:39.885306,501
2015-10-14 17:21:39.890680,492
2015-10-14 17:21:39.895925,500
2015-10-14 17:21:39.902482,507
2015-10-14 17:21:39.908863,509
2015-10-14 17:21:39.914027,515
2015-10-14 17:21:39.920504,515
2015-10-14 17:21:39.925656,518
2015-10-14 17:21:39.932173,526
2015-10-14 17:21:39.937372,529
2015-10-14 17:21:39.943843,521
2015-10-14 17:21:39.949111,513
2015-10-14 17:21:39.955533,497
2015-10-14 17:21:39.961961,490
2015-10-14 17:21:39.968379,499
2015-10-14 17:21:39.974126,506
2015-10-14 17:21:39.980545,496
2015-10-14 17:21:39.985951,491
2015-10-14 17:21:39.991635,508
2015-10-14 17:21:39.998067,516
2015-10-14 17:21:40.003272,503
2015-10-14 17:21:40.009690,494
2015-10-14 17:21:40.016108,500
2015-10-14 17:21:40.021465,513
2015-10-14 17:21:40.027890,512
2015-10-14 17:21:40.034315,531
2015-10-14 17:21:40.040735,601
2015-10-14 17:21:40.047178,708
2015-10-14 17:21:40.053340,822
2015-10-14 17:21:40.059798,944
2015-10-14 17:21:40.065234,994
2015-10-14 17:21:40.071657,987
2015-10-14 17:21:40.078105,831
2015-10-14 17:21:40.084524,493
2015-10-14 17:21:40.090499,322
2015-10-14 17:21:40.096431,359
2015-10-14 17:21:40.101741,440
2015-10-14 17:21:40.106984,488
2015-10-14 17:21:40.113409,499
2015-10-14 17:21:40.119933,496
2015-10-14 17:21:40.126371,488
2015-10-14 17:21:40.132789,480
2015-10-14 17:21:40.138343,482
2015-10-14 17:21:40.144811,487
2015-10-14 17:21:40.151253,488
2015-10-14 17:21:40.157549,494
2015-10-14 17:21:40.164119,498
2015-10-14 17:21:40.169414,496
2015-10-14 17:21:40.175805,496
2015-10-14 17:21:40.181067,497
2015-10-14 17:21:40.187575,498
2015-10-14 17:21:40.192895,513
2015-10-14 17:21:40.199315,523
2015-10-14 17:21:40.204676,521
2015-10-14 17:21:40.211092,521
2015-10-14 17:21:40.217525,526
2015-10-14 17:21:40.223295,530
2015-10-14 17:21:40.229679,534
2015-10-14 17:21:40.236134,542
2015-10-14 17:21:40.241606,554
2015-10-14 17:21:40.247801,567
2015-10-14 17:21:40.254274,572
2015-10-14 17:21:40.260731,575
2015-10-14 17:21:40.267204,583
2015-10-14 17:21:40.273673,600
2015-10-14 17:21:40.280101,615
2015-10-14 17:21:40.285608,621
2015-10-14 17:21:40.292111,625
2015-10-14 17:21:40.297326,643
2015-10-14 17:21:40.302414,655
2015-10-14 17:21:40.308811,646
2015-10-14 17:21:40.315280,650
2015-10-14 17:21:40.320604,664
2015-10-14 17:21:40.327024,656
2015-10-14 17:21:40.332283,639
2015-10-14 17:21:40.338777,632
2015-10-14 17:21:40.345196,630
2015-10-14 17:21:40.351612,614
2015-10-14 17:21:40.358064,587
2015-10-14 17:21:40.363204,557
2015-10-14 17:21:40.368359,533
2015-10-14 17:21:40.374188,509
2015-10-14 17:21:40.380645,487
2015-10-14 17:21:40.385811,467
2015-10-14 17:21:40.391829,453
2015-10-14 17:21:40.397731,448
2015-10-14 17:21:40.404138,440
2015-10-14 17:21:40.409411,429
2015-10-14 17:21:40.415768,427
2015-10-14 17:21:40.422202,431
2015-10-14 17:21:40.428641,428
2015-10-14 17:21:40.435080,423
2015-10-14 17:21:40.441523,425
2015-10-14 17:21:40.447940,427
2015-10-14 17:21:40.453245,425
2015-10-14 17:21:40.459745,426
2015-10-14 17:21:40.466255,429
2015-10-14 17:21:40.471554,426
2015-10-14 17:21:40.477955,422
2015-10-14 17:21:40.483161,425
2015-10-14 17:21:40.489573,425
2015-10-14 17:21:40.494819,432
2015-10-14 17:21:40.501233,437
2015-10-14 17:21:40.506370,434
2015-10-14 17:21:40.512847,431
2015-10-14 17:21:40.519130,431
2015-10-14 17:21:40.524904,433
2015-10-14 17:21:40.531324,443
2015-10-14 17:21:40.536860,447
2015-10-14 17:21:40.542035,443
2015-10-14 17:21:40.548480,448
2015-10-14 17:21:40.554930,453
2015-10-14 17:21:40.561347,446
2015-10-14 17:21:40.567794,439
2015-10-14 17:21:40.574173,445
2015-10-14 17:21:40.580611,455
2015-10-14 17:21:40.585771,456
2015-10-14 17:21:40.592192,456
2015-10-14 17:21:40.598633,458
2015-10-14 17:21:40.604884,460
2015-10-14 17:21:40.610758,464
2015-10-14 17:21:40.617204,467
2015-10-14 17:21:40.622432,475
2015-10-14 17:21:40.628854,477
2015-10-14 17:21:40.634070,474
2015-10-14 17:21:40.640214,467
2015-10-14 17:21:40.645506,473
2015-10-14 17:21:40.652022,475
2015-10-14 17:21:40.657335,473
2015-10-14 17:21:40.663294,472
2015-10-14 17:21:40.668735,477
2015-10-14 17:21:40.674070,471
2015-10-14 17:21:40.680336,464
2015-10-14 17:21:40.686845,473
2015-10-14 17:21:40.692193,484
2015-10-14 17:21:40.698611,481
2015-10-14 17:21:40.703823,473
2015-10-14 17:21:40.709329,472
2015-10-14 17:21:40.715165,479
2015-10-14 17:21:40.720667,478
2015-10-14 17:21:40.726843,478
2015-10-14 17:21:40.733303,485
2015-10-14 17:21:40.738631,490
2015-10-14 17:21:40.745050,479
2015-10-14 17:21:40.750240,474
2015-10-14 17:21:40.755487,481
2015-10-14 17:21:40.761599,486
2015-10-14 17:21:40.768064,483
2015-10-14 17:21:40.773286,486
2015-10-14 17:21:40.779708,489
2015-10-14 17:21:40.785070,490
2015-10-14 17:21:40.790200,486
2015-10-14 17:21:40.796339,487
2015-10-14 17:21:40.802797,491
2015-10-14 17:21:40.808038,488
2015-10-14 17:21:40.814632,481
2015-10-14 17:21:40.820902,483
2015-10-14 17:21:40.827329,494
2015-10-14 17:21:40.833757,494
2015-10-14 17:21:40.839538,488
2015-10-14 17:21:40.845959,484
2015-10-14 17:21:40.851686,488
2015-10-14 17:21:40.856849,490
2015-10-14 17:21:40.863261,495
2015-10-14 17:21:40.869701,503
2015-10-14 17:21:40.876147,505
2015-10-14 17:21:40.882596,501
2015-10-14 17:21:40.889059,496
2015-10-14 17:21:40.895519,498
2015-10-14 17:21:40.900923,502
2015-10-14 17:21:40.906322,501
2015-10-14 17:21:40.912658,502
2015-10-14 17:21:40.919114,507
2015-10-14 17:21:40.925491,511
2015-10-14 17:21:40.931499,515
2015-10-14 17:21:40.936928,520
2015-10-14 17:21:40.942717,516
2015-10-14 17:21:40.949119,505
2015-10-14 17:21:40.955544,496
2015-10-14 17:21:40.961989,491
2015-10-14 17:21:40.967783,492
2015-10-14 17:21:40.973134,493
2015-10-14 17:21:40.978277,499
2015-10-14 17:21:40.984698,498
2015-10-14 17:21:40.991114,494
2015-10-14 17:21:40.997549,492
2015-10-14 17:21:41.003631,493
2015-10-14 17:21:41.009326,494
2015-10-14 17:21:41.015843,495
2015-10-14 17:21:41.021779,497
2015-10-14 17:21:41.028221,506
2015-10-14 17:21:41.033477,521
2015-10-14 17:21:41.039842,560
2015-10-14 17:21:41.046303,652
2015-10-14 17:21:41.052103,772
2015-10-14 17:21:41.057948,915
2015-10-14 17:21:41.063469,993
2015-10-14 17:21:41.070019,992
2015-10-14 17:21:41.075213,910
2015-10-14 17:21:41.081634,596
2015-10-14 17:21:41.086937,338
2015-10-14 17:21:41.093354,333
2015-10-14 17:21:41.098543,416
2015-10-14 17:21:41.103663,489
2015-10-14 17:21:41.109906,512
2015-10-14 17:21:41.116429,499
2015-10-14 17:21:41.121756,486
2015-10-14 17:21:41.128170,485
2015-10-14 17:21:41.133411,490
2015-10-14 17:21:41.139799,497
2015-10-14 17:21:41.144932,501
2015-10-14 17:21:41.150146,499
2015-10-14 17:21:41.156352,501
2015-10-14 17:21:41.162866,507
2015-10-14 17:21:41.168015,515
2015-10-14 17:21:41.173375,516
2015-10-14 17:21:41.179557,511
2015-10-14 17:21:41.186024,520
2015-10-14 17:21:41.191388,536
2015-10-14 17:21:41.197835,538
2015-10-14 17:21:41.203014,530
2015-10-14 17:21:41.209417,537
2015-10-14 17:21:41.214594,550
2015-10-14 17:21:41.221023,558
2015-10-14 17:21:41.226172,556
2015-10-14 17:21:41.231767,559
2015-10-14 17:21:41.237605,572
2015-10-14 17:21:41.244073,579
2015-10-14 17:21:41.249405,582
2015-10-14 17:21:41.255677,592
2015-10-14 17:21:41.261011,607
2015-10-14 17:21:41.267432,616
2015-10-14 17:21:41.272761,617
2015-10-14 17:21:41.279183,618
2015-10-14 17:21:41.284345,631
2015-10-14 17:21:41.290350,640
2015-10-14 17:21:41.295819,633
2015-10-14 17:21:41.302243,630
2015-10-14 17:21:41.307363,625
2015-10-14 17:21:41.313775,617
2015-10-14 17:21:41.319143,618
2015-10-14 17:21:41.324235,622
2015-10-14 17:21:41.330526,609
2015-10-14 17:21:41.337015,585
2015-10-14 17:21:41.342284,562
2015-10-14 17:21:41.348703,548
2015-10-14 17:21:41.353902,535
2015-10-14 17:21:41.360319,508
2015-10-14 17:21:41.365599,483
2015-10-14 17:21:41.372019,461
2015-10-14 17:21:41.378451,440
2015-10-14 17:21:41.384870,432
2015-10-14 17:21:41.390685,438
2015-10-14 17:21:41.397160,433
2015-10-14 17:21:41.403606,420
2015-10-14 17:21:41.410055,415
2015-10-14 17:21:41.416474,419
2015-10-14 17:21:41.422871,420
2015-10-14 17:21:41.429289,420
2015-10-14 17:21:41.435153,420
2015-10-14 17:21:41.441619,424
2015-10-14 17:21:41.446804,430
2015-10-14 17:21:41.452407,427
2015-10-14 17:21:41.458215,420
2015-10-14 17:21:41.464644,424
2015-10-14 17:21:41.469896,433
2015-10-14 17:21:41.475554,433
2015-10-14 17:21:41.481613,429
2015-10-14 17:21:41.488079,432
2015-10-14 17:21:41.493305,440
2015-10-14 17:21:41.499718,442
2015-10-14 17:21:41.504888,437
2015-10-14 17:21:41.511302,443
2015-10-14 17:21:41.516434,444
2015-10-14 17:21:41.522874,443
2015-10-14 17:21:41.528688,444
2015-10-14 17:21:41.534674,444
2015-10-14 17:21:41.540788,444
2015-10-14 17:21:41.546714,447
2015-10-14 17:21:41.552049,453
2015-10-14 17:21:41.557368,456
2015-10-14 17:21:41.562860,455
2015-10-14 17:21:41.569302,456
2015-10-14 17:21:41.574443,458
2015-10-14 17:21:41.580873,465
2015-10-14 17:21:41.586286,465
2015-10-14 17:21:41.591872,456
2015-10-14 17:21:41.597563,459
2015-10-14 17:21:41.604094,466
2015-10-14 17:21:41.609394,472
2015-10-14 17:21:41.615829,468
2015-10-14 17:21:41.621016,467
2015-10-14 17:21:41.627435,471
2015-10-14 17:21:41.632647,471
2015-10-14 17:21:41.639066,471
2015-10-14 17:21:41.644183,471
2015-10-14 17:21:41.650630,469
2015-10-14 17:21:41.655864,466
2015-10-14 17:21:41.661313,467
2015-10-14 17:21:41.667219,473
2015-10-14 17:21:41.673693,474
2015-10-14 17:21:41.678959,468
2015-10-14 17:21:41.684751,466
2015-10-14 17:21:41.690581,470
2015-10-14 17:21:41.697145,469
2015-10-14 17:21:41.702264,472
2015-10-14 17:21:41.707635,478
2015-10-14 17:21:41.713687,482
2015-10-14 17:21:41.720268,477
2015-10-14 17:21:41.725450,478
2015-10-14 17:21:41.731890,481
2015-10-14 17:21:41.737021,479
2015-10-14 17:21:41.743440,481
2015-10-14 17:21:41.748744,485
2015-10-14 17:21:41.755157,486
2015-10-14 17:21:41.760783,483
2015-10-14 17:21:41.767219,480
2015-10-14 17:21:41.773664,478
2015-10-14 17:21:41.780080,485
2015-10-14 17:21:41.785409,488
2015-10-14 17:21:41.791835,483
2015-10-14 17:21:41.798280,483
2015-10-14 17:21:41.804707,483
2015-10-14 17:21:41.811160,481
2015-10-14 17:21:41.816382,490
2015-10-14 17:21:41.822804,506
2015-10-14 17:21:41.827955,507
2015-10-14 17:21:41.834379,498
2015-10-14 17:21:41.839504,498
2015-10-14 17:21:41.845926,498
2015-10-14 17:21:41.852371,502
2015-10-14 17:21:41.857951,510
2015-10-14 17:21:41.864294,513
2015-10-14 17:21:41.870717,509
2015-10-14 17:21:41.876196,512
2015-10-14 17:21:41.882667,524
2015-10-14 17:21:41.887816,532
2015-10-14 17:21:41.893101,539
2015-10-14 17:21:41.899402,539
2015-10-14 17:21:41.905193,529
2015-10-14 17:21:41.911055,519
2015-10-14 17:21:41.917632,513
2015-10-14 17:21:41.923411,509
2015-10-14 17:21:41.929887,509
2015-10-14 17:21:41.936334,514
2015-10-14 17:21:41.942751,516
2015-10-14 17:21:41.949194,509
2015-10-14 17:21:41.954381,506
2015-10-14 17:21:41.959569,519
2015-10-14 17:21:41.965204,527
2015-10-14 17:21:41.970441,521
2015-10-14 17:21:41.975678,510
2015-10-14 17:21:41.981412,514
2015-10-14 17:21:41.987755,534
2015-10-14 17:21:41.993444,538
2015-10-14 17:21:41.998839,558
2015-10-14 17:21:42.005191,633
2015-10-14 17:21:42.011516,743
2015-10-14 17:21:42.017856,882
2015-10-14 17:21:42.023683,987
2015-10-14 17:21:42.030030,993
2015-10-14 17:21:42.036099,959
2015-10-14 17:21:42.041497,697
2015-10-14 17:21:42.047852,394
2015-10-14 17:21:42.054163,348
2015-10-14 17:21:42.060457,413
2015-10-14 17:21:42.065734,472
2015-10-14 17:21:42.072069,508
2015-10-14 17:21:42.077946,517
2015-10-14 17:21:42.083717,507
2015-10-14 17:21:42.089830,499
2015-10-14 17:21:42.095677,507
2015-10-14 17:21:42.100917,514
2015-10-14 17:21:42.107506,512
2015-10-14 17:21:42.113892,510
2015-10-14 17:21:42.119916,514
2015-10-14 17:21:42.126354,526
2015-10-14 17:21:42.131572,529
2015-10-14 17:21:42.137932,524
2015-10-14 17:21:42.143207,525
2015-10-14 17:21:42.149431,526
2015-10-14 17:21:42.154777,527
2015-10-14 17:21:42.161154,528
2015-10-14 17:21:42.166363,536
2015-10-14 17:21:42.171875,553
2015-10-14 17:21:42.178015,555
2015-10-14 17:21:42.183638,555
2015-10-14 17:21:42.190014,562
2015-10-14 17:21:42.196365,573
2015-10-14 17:21:42.202232,578
2015-10-14 17:21:42.208641,582
2015-10-14 17:21:42.214695,592
2015-10-14 17:21:42.220784,602
2015-10-14 17:21:42.225963,609
2015-10-14 17:21:42.231375,621
2015-10-14 17:21:42.236511,638
2015-10-14 17:21:42.241861,648
2015-10-14 17:21:42.247713,653
2015-10-14 17:21:42.254077,658
2015-10-14 17:21:42.259446,666
2015-10-14 17:21:42.265081,665
2015-10-14 17:21:42.270924,663
2015-10-14 17:21:42.277329,668
2015-10-14 17:21:42.282522,670
2015-10-14 17:21:42.287770,655
2015-10-14 17:21:42.294173,645
2015-10-14 17:21:42.300172,641
2015-10-14 17:21:42.305790,627
2015-10-14 17:21:42.312208,599
2015-10-14 17:21:42.317515,569
2015-10-14 17:21:42.323939,542
2015-10-14 17:21:42.330323,521
2015-10-14 17:21:42.335610,499
2015-10-14 17:21:42.341438,478
2015-10-14 17:21:42.347803,469
2015-10-14 17:21:42.352975,459
2015-10-14 17:21:42.358765,440
2015-10-14 17:21:42.363905,433
2015-10-14 17:21:42.369446,447
2015-10-14 17:21:42.375367,452
2015-10-14 17:21:42.381900,439
2015-10-14 17:21:42.387031,433
2015-10-14 17:21:42.392903,442
2015-10-14 17:21:42.398646,448
2015-10-14 17:21:42.404117,440
2015-10-14 17:21:42.410263,433
2015-10-14 17:21:42.415907,433
2015-10-14 17:21:42.421918,437
2015-10-14 17:21:42.428343,441
2015-10-14 17:21:42.433499,443
2015-10-14 17:21:42.440160,442
2015-10-14 17:21:42.446571,438
2015-10-14 17:21:42.451886,432
2015-10-14 17:21:42.457814,433
2015-10-14 17:21:42.464199,447
2015-10-14 17:21:42.469857,458
2015-10-14 17:21:42.475641,455
2015-10-14 17:21:42.481178,455
2015-10-14 17:21:42.486379,461
2015-10-14 17:21:42.491551,463
2015-10-14 17:21:42.496908,462
2015-10-14 17:21:42.503272,461
2015-10-14 17:21:42.509017,461
2015-10-14 17:21:42.515081,464
2015-10-14 17:21:42.521603,474
2015-10-14 17:21:42.527521,482
2015-10-14 17:21:42.532726,477
2015-10-14 17:21:42.538021,471
2015-10-14 17:21:42.543318,475
2015-10-14 17:21:42.549570,481
2015-10-14 17:21:42.555162,476
2015-10-14 17:21:42.561181,465
2015-10-14 17:21:42.566586,468
2015-10-14 17:21:42.572383,477
2015-10-14 17:21:42.577497,486
2015-10-14 17:21:42.582565,488
2015-10-14 17:21:42.587903,486
2015-10-14 17:21:42.594221,477
2015-10-14 17:21:42.599394,471
2015-10-14 17:21:42.604488,474
2015-10-14 17:21:42.609640,481
2015-10-14 17:21:42.615156,484
2015-10-14 17:21:42.621502,483
2015-10-14 17:21:42.627818,480
2015-10-14 17:21:42.634133,479
2015-10-14 17:21:42.639581,479
2015-10-14 17:21:42.645780,489
2015-10-14 17:21:42.652212,500
2015-10-14 17:21:42.658383,495
2015-10-14 17:21:42.664078,482
2015-10-14 17:21:42.669592,480
2015-10-14 17:21:42.674976,490
2015-10-14 17:21:42.681322,493
2015-10-14 17:21:42.687636,494
2015-10-14 17:21:42.692709,492
2015-10-14 17:21:42.698370,492
2015-10-14 17:21:42.704637,499
2015-10-14 17:21:42.710978,503
2015-10-14 17:21:42.717309,505
2015-10-14 17:21:42.723637,508
2015-10-14 17:21:42.729790,514
2015-10-14 17:21:42.735477,513
2015-10-14 17:21:42.741426,503
2015-10-14 17:21:42.746940,489
2015-10-14 17:21:42.752248,483
2015-10-14 17:21:42.758784,483
2015-10-14 17:21:42.763946,494
2015-10-14 17:21:42.770060,495
2015-10-14 17:21:42.776069,486
2015-10-14 17:21:42.781797,485
2015-10-14 17:21:42.787200,489
2015-10-14 17:21:42.792768,491
2015-10-14 17:21:42.799109,489
2015-10-14 17:21:42.804921,482
2015-10-14 17:21:42.812084,493
2015-10-14 17:21:42.818393,519
2015-10-14 17:21:42.824737,528
2015-10-14 17:21:42.831091,539
2015-10-14 17:21:42.837485,591
2015-10-14 17:21:42.843798,675
2015-10-14 17:21:42.850211,788
2015-10-14 17:21:42.856041,895
2015-10-14 17:21:42.861236,939
2015-10-14 17:21:42.867669,906
2015-10-14 17:21:42.873334,683
2015-10-14 17:21:42.879820,380
2015-10-14 17:21:42.886254,317
2015-10-14 17:21:42.891549,389
2015-10-14 17:21:42.897937,435
2015-10-14 17:21:42.904452,469
2015-10-14 17:21:42.909625,498
2015-10-14 17:21:42.915867,510
2015-10-14 17:21:42.921158,502
2015-10-14 17:21:42.926453,495
2015-10-14 17:21:42.932877,495
2015-10-14 17:21:42.939399,489
2015-10-14 17:21:42.945416,486
2015-10-14 17:21:42.951702,500
2015-10-14 17:21:42.958151,513
2015-10-14 17:21:42.963827,512
2015-10-14 17:21:42.970243,506
2015-10-14 17:21:42.976699,512
2015-10-14 17:21:42.983182,523
2015-10-14 17:21:42.989623,526
2015-10-14 17:21:42.994891,524
2015-10-14 17:21:43.001386,534
2015-10-14 17:21:43.007884,543
2015-10-14 17:21:43.013908,548
2015-10-14 17:21:43.020335,552
2015-10-14 17:21:43.025538,561
2015-10-14 17:21:43.031948,568
2015-10-14 17:21:43.037249,573
2015-10-14 17:21:43.042491,580
2015-10-14 17:21:43.048845,592
2015-10-14 17:21:43.054931,604
2015-10-14 17:21:43.060433,612
2015-10-14 17:21:43.065661,623
2015-10-14 17:21:43.072064,637
2015-10-14 17:21:43.077310,648
2015-10-14 17:21:43.083673,651
2015-10-14 17:21:43.090251,655
2015-10-14 17:21:43.096695,657
2015-10-14 17:21:43.103114,654
2015-10-14 17:21:43.108844,655
2015-10-14 17:21:43.114479,659
2015-10-14 17:21:43.120216,657
2015-10-14 17:21:43.125698,642
2015-10-14 17:21:43.131872,620
2015-10-14 17:21:43.138300,611
2015-10-14 17:21:43.144775,597
2015-10-14 17:21:43.150911,560
2015-10-14 17:21:43.157317,527
2015-10-14 17:21:43.162434,509
2015-10-14 17:21:43.168871,491
2015-10-14 17:21:43.175349,471
2015-10-14 17:21:43.181778,454
2015-10-14 17:21:43.188082,447
2015-10-14 17:21:43.194539,436
2015-10-14 17:21:43.199780,425
2015-10-14 17:21:43.206158,424
2015-10-14 17:21:43.211318,424
2015-10-14 17:21:43.216886,417
2015-10-14 17:21:43.222900,415
2015-10-14 17:21:43.228852,422
2015-10-14 17:21:43.234632,423
2015-10-14 17:21:43.240709,418
2015-10-14 17:21:43.246336,417
2015-10-14 17:21:43.251999,421
2015-10-14 17:21:43.257756,424
2015-10-14 17:21:43.262941,424
2015-10-14 17:21:43.269425,421
2015-10-14 17:21:43.275036,429
2015-10-14 17:21:43.281081,438
2015-10-14 17:21:43.287470,435
2015-10-14 17:21:43.293783,433
2015-10-14 17:21:43.298988,441
2015-10-14 17:21:43.304212,446
2015-10-14 17:21:43.310536,445
2015-10-14 17:21:43.316018,444
2015-10-14 17:21:43.322437,451
2015-10-14 17:21:43.327584,457
2015-10-14 17:21:43.332773,452
2015-10-14 17:21:43.339056,452
2015-10-14 17:21:43.344408,463
2015-10-14 17:21:43.350632,465
2015-10-14 17:21:43.357049,459
2015-10-14 17:21:43.362610,466
2015-10-14 17:21:43.369055,477
2015-10-14 17:21:43.375409,470
2015-10-14 17:21:43.380620,461
2015-10-14 17:21:43.387040,461
2015-10-14 17:21:43.392933,475
2015-10-14 17:21:43.399339,476
2015-10-14 17:21:43.404865,468
2015-10-14 17:21:43.410895,471
2015-10-14 17:21:43.416068,475
2015-10-14 17:21:43.421847,473
2015-10-14 17:21:43.427611,468
2015-10-14 17:21:43.433810,469
2015-10-14 17:21:43.439037,473
2015-10-14 17:21:43.444272,471
2015-10-14 17:21:43.450619,469
2015-10-14 17:21:43.455717,474
2015-10-14 17:21:43.461331,476
2015-10-14 17:21:43.467762,471
2015-10-14 17:21:43.473229,475
2015-10-14 17:21:43.479352,485
2015-10-14 17:21:43.485734,480
2015-10-14 17:21:43.491337,473
2015-10-14 17:21:43.497513,475
2015-10-14 17:21:43.502708,488
2015-10-14 17:21:43.507832,495
2015-10-14 17:21:43.513339,481
2015-10-14 17:21:43.519875,475
2015-10-14 17:21:43.526244,482
2015-10-14 17:21:43.532126,487
2015-10-14 17:21:43.537297,489
2015-10-14 17:21:43.542509,492
2015-10-14 17:21:43.548118,494
2015-10-14 17:21:43.554588,491
2015-10-14 17:21:43.559789,485
2015-10-14 17:21:43.566213,478
2015-10-14 17:21:43.571578,469
2015-10-14 17:21:43.578004,468
2015-10-14 17:21:43.583894,467
2015-10-14 17:21:43.590302,470
2015-10-14 17:21:43.596745,470
2015-10-14 17:21:43.603211,464
2015-10-14 17:21:43.608508,465
2015-10-14 17:21:43.614932,479
2015-10-14 17:21:43.620938,478
2015-10-14 17:21:43.626323,468
2015-10-14 17:21:43.631955,470
2015-10-14 17:21:43.637074,491
2015-10-14 17:21:43.642527,494
2015-10-14 17:21:43.648912,500
2015-10-14 17:21:43.654171,563
2015-10-14 17:21:43.659511,670
2015-10-14 17:21:43.665963,793
2015-10-14 17:21:43.672385,924
2015-10-14 17:21:43.678731,985
2015-10-14 17:21:43.683960,958
2015-10-14 17:21:43.690384,765
2015-10-14 17:21:43.696796,441
2015-10-14 17:21:43.703213,308
2015-10-14 17:21:43.709562,370
2015-10-14 17:21:43.716197,427
2015-10-14 17:21:43.722202,459
2015-10-14 17:21:43.727891,481
2015-10-14 17:21:43.733884,489
2015-10-14 17:21:43.740344,485
2015-10-14 17:21:43.745664,478
2015-10-14 17:21:43.751762,479
2015-10-14 17:21:43.757096,481
2015-10-14 17:21:43.763561,481
2015-10-14 17:21:43.768878,491
2015-10-14 17:21:43.774294,503
2015-10-14 17:21:43.780339,504
2015-10-14 17:21:43.786819,500
2015-10-14 17:21:43.792068,503
2015-10-14 17:21:43.798493,512
2015-10-14 17:21:43.803756,514
2015-10-14 17:21:43.809743,514
2015-10-14 17:21:43.815273,519
2015-10-14 17:21:43.821743,531
2015-10-14 17:21:43.826901,535
2015-10-14 17:21:43.833329,535
2015-10-14 17:21:43.838763,544
2015-10-14 17:21:43.844289,550
2015-10-14 17:21:43.849943,557
2015-10-14 17:21:43.856407,568
2015-10-14 17:21:43.861624,584
2015-10-14 17:21:43.867048,597
2015-10-14 17:21:43.873163,607
2015-10-14 17:21:43.878588,614
2015-10-14 17:21:43.884835,627
2015-10-14 17:21:43.891361,637
2015-10-14 17:21:43.897788,643
2015-10-14 17:21:43.904250,655
2015-10-14 17:21:43.909648,664
2015-10-14 17:21:43.915288,667
2015-10-14 17:21:43.921650,661
2015-10-14 17:21:43.926917,658
2015-10-14 17:21:43.932988,657
2015-10-14 17:21:43.938178,651
2015-10-14 17:21:43.943349,639
2015-10-14 17:21:43.949685,625
2015-10-14 17:21:43.956019,600
2015-10-14 17:21:43.962352,571
2015-10-14 17:21:43.967503,548
2015-10-14 17:21:43.973774,525
2015-10-14 17:21:43.980089,503
2015-10-14 17:21:43.985349,481
2015-10-14 17:21:43.990926,461
2015-10-14 17:21:43.997287,447
2015-10-14 17:21:44.002414,441
2015-10-14 17:21:44.007763,436
2015-10-14 17:21:44.014104,429
2015-10-14 17:21:44.019983,431
2015-10-14 17:21:44.026098,431
2015-10-14 17:21:44.031234,426
2015-10-14 17:21:44.037664,429
2015-10-14 17:21:44.042952,434
2015-10-14 17:21:44.049317,433
2015-10-14 17:21:44.055680,430
2015-10-14 17:21:44.060969,429
2015-10-14 17:21:44.066225,432
2015-10-14 17:21:44.072602,431
2015-10-14 17:21:44.078316,430
2015-10-14 17:21:44.084656,434
2015-10-14 17:21:44.090976,437
2015-10-14 17:21:44.097107,435
2015-10-14 17:21:44.102223,435
2015-10-14 17:21:44.107939,441
2015-10-14 17:21:44.114396,449
2015-10-14 17:21:44.120986,448
2015-10-14 17:21:44.126257,446
2015-10-14 17:21:44.131871,450
2015-10-14 17:21:44.137576,453
2015-10-14 17:21:44.143264,452
2015-10-14 17:21:44.148872,449
2015-10-14 17:21:44.155454,446
2015-10-14 17:21:44.161869,443
2015-10-14 17:21:44.166988,449
2015-10-14 17:21:44.173440,464
2015-10-14 17:21:44.179937,474
2015-10-14 17:21:44.186400,472
2015-10-14 17:21:44.192894,460
2015-10-14 17:21:44.198277,458
2015-10-14 17:21:44.204104,464
2015-10-14 17:21:44.209860,464
2015-10-14 17:21:44.215029,462
2015-10-14 17:21:44.220799,464
2015-10-14 17:21:44.226581,469
2015-10-14 17:21:44.231906,470
2015-10-14 17:21:44.237027,469
2015-10-14 17:21:44.243259,474
2015-10-14 17:21:44.249690,477
2015-10-14 17:21:44.255788,473
2015-10-14 17:21:44.262028,471
2015-10-14 17:21:44.267937,473
2015-10-14 17:21:44.273848,479
2015-10-14 17:21:44.279532,475
2015-10-14 17:21:44.285923,472
2015-10-14 17:21:44.291557,475
2015-10-14 17:21:44.297969,477
2015-10-14 17:21:44.303170,474
2015-10-14 17:21:44.308790,478
2015-10-14 17:21:44.314389,482
2015-10-14 17:21:44.319856,489
2015-10-14 17:21:44.325992,483
2015-10-14 17:21:44.332480,481
2015-10-14 17:21:44.337826,488
2015-10-14 17:21:44.344232,487
2015-10-14 17:21:44.349374,482
2015-10-14 17:21:44.354759,482
2015-10-14 17:21:44.360852,485
2015-10-14 17:21:44.366099,488
2015-10-14 17:21:44.371416,490
2015-10-14 17:21:44.376844,500
2015-10-14 17:21:44.383216,502
2015-10-14 17:21:44.388903,501
2015-10-14 17:21:44.394391,507
2015-10-14 17:21:44.399684,507
2015-10-14 17:21:44.404974,496
2015-10-14 17:21:44.410658,479
2015-10-14 17:21:44.416987,469
2015-10-14 17:21:44.423392,476
2015-10-14 17:21:44.428940,485
2015-10-14 17:21:44.435353,478
2015-10-14 17:21:44.441058,471
2015-10-14 17:21:44.446210,483
2015-10-14 17:21:44.452678,488
2015-10-14 17:21:44.459126,479
2015-10-14 17:21:44.465350,473
2015-10-14 17:21:44.471921,476
2015-10-14 17:21:44.477077,492
2015-10-14 17:21:44.483477,503
2015-10-14 17:21:44.488698,499
2015-10-14 17:21:44.495160,528
2015-10-14 17:21:44.500446,627
2015-10-14 17:21:44.506845,757
2015-10-14 17:21:44.511965,895
2015-10-14 17:21:44.518424,988
2015-10-14 17:21:44.523634,989
2015-10-14 17:21:44.528786,928
2015-10-14 17:21:44.534674,659
2015-10-14 17:21:44.541044,358
2015-10-14 17:21:44.546635,305
2015-10-14 17:21:44.554285,377
2015-10-14 17:21:44.560623,449
2015-10-14 17:21:44.566280,483
2015-10-14 17:21:44.573133,483
2015-10-14 17:21:44.579017,476
2015-10-14 17:21:44.585979,474
2015-10-14 17:21:44.591805,476
2015-10-14 17:21:44.598542,472
2015-10-14 17:21:44.604126,473
2015-10-14 17:21:44.609873,480
2015-10-14 17:21:44.616223,482
2015-10-14 17:21:44.621789,482
2015-10-14 17:21:44.627771,484
2015-10-14 17:21:44.634092,497
2015-10-14 17:21:44.639463,501
2015-10-14 17:21:44.644667,496
2015-10-14 17:21:44.651154,499
2015-10-14 17:21:44.657585,511
2015-10-14 17:21:44.663340,515
2015-10-14 17:21:44.668778,511
2015-10-14 17:21:44.674111,511
2015-10-14 17:21:44.679234,521
2015-10-14 17:21:44.685516,534
2015-10-14 17:21:44.691968,541
2015-10-14 17:21:44.697557,545
2015-10-14 17:21:44.704064,553
2015-10-14 17:21:44.709823,562
2015-10-14 17:21:44.716182,575
2015-10-14 17:21:44.721276,589
2015-10-14 17:21:44.727173,599
2015-10-14 17:21:44.732329,603
2015-10-14 17:21:44.738707,609
2015-10-14 17:21:44.743939,636
2015-10-14 17:21:44.750263,648
2015-10-14 17:21:44.755496,642
2015-10-14 17:21:44.761363,638
2015-10-14 17:21:44.767100,635
2015-10-14 17:21:44.774445,634
2015-10-14 17:21:44.779992,632
2015-10-14 17:21:44.785220,629
2015-10-14 17:21:44.790990,624
2015-10-14 17:21:44.796793,603
2015-10-14 17:21:44.802134,574
2015-10-14 17:21:44.808479,548
2015-10-14 17:21:44.813674,523
2015-10-14 17:21:44.819568,495
2015-10-14 17:21:44.825214,473
2015-10-14 17:21:44.830660,459
2015-10-14 17:21:44.836760,445
2015-10-14 17:21:44.842520,428
2015-10-14 17:21:44.848378,421
2015-10-14 17:21:44.854776,430
2015-10-14 17:21:44.860097,426
2015-10-14 17:21:44.865957,411
2015-10-14 17:21:44.871648,405
2015-10-14 17:21:44.876807,416
2015-10-14 17:21:44.883151,423
2015-10-14 17:21:44.889741,420
2015-10-14 17:21:44.894999,414
2015-10-14 17:21:44.901107,414
2015-10-14 17:21:44.906430,417
2015-10-14 17:21:44.912687,417
2015-10-14 17:21:44.918057,417
2015-10-14 17:21:44.924582,418
2015-10-14 17:21:44.929921,416
2015-10-14 17:21:44.935121,417
2015-10-14 17:21:44.941328,421
2015-10-14 17:21:44.947410,425
2015-10-14 17:21:44.952846,422
2015-10-14 17:21:44.959034,421
2015-10-14 17:21:44.964711,436
2015-10-14 17:21:44.971816,445
2015-10-14 17:21:44.977418,439
2015-10-14 17:21:44.982554,427
2015-10-14 17:21:44.988928,427
2015-10-14 17:21:44.995083,441
2015-10-14 17:21:45.000293,448
2015-10-14 17:21:45.006415,442
2015-10-14 17:21:45.012758,442
2015-10-14 17:21:45.019170,441
2015-10-14 17:21:45.024971,440
2015-10-14 17:21:45.030513,449
2015-10-14 17:21:45.036402,458
2015-10-14 17:21:45.041822,455
2015-10-14 17:21:45.046972,451
2015-10-14 17:21:45.052215,460
2015-10-14 17:21:45.057428,466
2015-10-14 17:21:45.063019,465
2015-10-14 17:21:45.068978,460
2015-10-14 17:21:45.074259,460
2015-10-14 17:21:45.080590,465
2015-10-14 17:21:45.086666,462
2015-10-14 17:21:45.092298,461
2015-10-14 17:21:45.097687,464
2015-10-14 17:21:45.103879,468
2015-10-14 17:21:45.109248,464
2015-10-14 17:21:45.115694,457
2015-10-14 17:21:45.121720,461
2015-10-14 17:21:45.127111,465
2015-10-14 17:21:45.132311,458
2015-10-14 17:21:45.138764,451
2015-10-14 17:21:45.145196,463
2015-10-14 17:21:45.150391,473
2015-10-14 17:21:45.155863,468
2015-10-14 17:21:45.161910,468
2015-10-14 17:21:45.167809,479
2015-10-14 17:21:45.173757,477
2015-10-14 17:21:45.178994,470
2015-10-14 17:21:45.185093,470
2015-10-14 17:21:45.190761,483
2015-10-14 17:21:45.196962,488
2015-10-14 17:21:45.202358,484
2015-10-14 17:21:45.208461,482
2015-10-14 17:21:45.214329,485
2015-10-14 17:21:45.219889,487
2015-10-14 17:21:45.225080,486
2015-10-14 17:21:45.231115,487
2015-10-14 17:21:45.236929,487
2015-10-14 17:21:45.243170,479
2015-10-14 17:21:45.248528,478
2015-10-14 17:21:45.254146,502
2015-10-14 17:21:45.260002,514
2015-10-14 17:21:45.266355,503
2015-10-14 17:21:45.272732,499
2015-10-14 17:21:45.278110,506
2015-10-14 17:21:45.284588,504
2015-10-14 17:21:45.289714,494
2015-10-14 17:21:45.296153,491
2015-10-14 17:21:45.301479,489
2015-10-14 17:21:45.307361,481
2015-10-14 17:21:45.312768,477
2015-10-14 17:21:45.319171,482
2015-10-14 17:21:45.325531,486
2015-10-14 17:21:45.331098,482
2015-10-14 17:21:45.337483,482
2015-10-14 17:21:45.343668,482
2015-10-14 17:21:45.348808,488
2015-10-14 17:21:45.354766,485
2015-10-14 17:21:45.360068,479
2015-10-14 17:21:45.366433,490
2015-10-14 17:21:45.371512,502
2015-10-14 17:21:45.377898,535
2015-10-14 17:21:45.383479,621
2015-10-14 17:21:45.389939,747
2015-10-14 17:21:45.396315,889
2015-10-14 17:21:45.401615,990
2015-10-14 17:21:45.406723,992
2015-10-14 17:21:45.412161,944
2015-10-14 17:21:45.418326,674
2015-10-14 17:21:45.423688,369
2015-10-14 17:21:45.428914,309
2015-10-14 17:21:45.435455,377
2015-10-14 17:21:45.440836,448
2015-10-14 17:21:45.447209,484
2015-10-14 17:21:45.453574,490
2015-10-14 17:21:45.460021,485
2015-10-14 17:21:45.466464,477
2015-10-14 17:21:45.472823,469
2015-10-14 17:21:45.478811,475
2015-10-14 17:21:45.485251,483
2015-10-14 17:21:45.490746,483
2015-10-14 17:21:45.497173,483
2015-10-14 17:21:45.503625,493
2015-10-14 17:21:45.509906,504
2015-10-14 17:21:45.515498,505
2015-10-14 17:21:45.521906,502
2015-10-14 17:21:45.527760,504
2015-10-14 17:21:45.534196,517
2015-10-14 17:21:45.540659,531
2015-10-14 17:21:45.545832,533
2015-10-14 17:21:45.551432,528
2015-10-14 17:21:45.556710,528
2015-10-14 17:21:45.563095,533
2015-10-14 17:21:45.568267,542
2015-10-14 17:21:45.574280,552
2015-10-14 17:21:45.579904,560
2015-10-14 17:21:45.586279,565
2015-10-14 17:21:45.591444,580
2015-10-14 17:21:45.596621,601
2015-10-14 17:21:45.601720,609
2015-10-14 17:21:45.607228,614
2015-10-14 17:21:45.612373,625
2015-10-14 17:21:45.618536,639
2015-10-14 17:21:45.624890,652
2015-10-14 17:21:45.630144,665
2015-10-14 17:21:45.636183,668
2015-10-14 17:21:45.642509,664
2015-10-14 17:21:45.648094,662
2015-10-14 17:21:45.654416,661
2015-10-14 17:21:45.660739,663
2015-10-14 17:21:45.667070,660
2015-10-14 17:21:45.672719,644
2015-10-14 17:21:45.679056,617
2015-10-14 17:21:45.684335,600
2015-10-14 17:21:45.690653,581
2015-10-14 17:21:45.695994,549
2015-10-14 17:21:45.702302,521
2015-10-14 17:21:45.707573,506
2015-10-14 17:21:45.713948,492
2015-10-14 17:21:45.719163,471
2015-10-14 17:21:45.725488,456
2015-10-14 17:21:45.730770,451
2015-10-14 17:21:45.736312,448
2015-10-14 17:21:45.741385,447
2015-10-14 17:21:45.748797,444
2015-10-14 17:21:45.754219,450
2015-10-14 17:21:45.760663,446
2015-10-14 17:21:45.767048,440
2015-10-14 17:21:45.772230,448
2015-10-14 17:21:45.778192,448
2015-10-14 17:21:45.783999,439
2015-10-14 17:21:45.790476,435
2015-10-14 17:21:45.796902,445
2015-10-14 17:21:45.802110,450
2015-10-14 17:21:45.807773,443
2015-10-14 17:21:45.814242,437
2015-10-14 17:21:45.820622,449
2015-10-14 17:21:45.826060,455
2015-10-14 17:21:45.832417,447
2015-10-14 17:21:45.837949,447
2015-10-14 17:21:45.844301,452
2015-10-14 17:21:45.850340,452
2015-10-14 17:21:45.856752,444
2015-10-14 17:21:45.863223,448
2015-10-14 17:21:45.868464,455
2015-10-14 17:21:45.873737,456
2015-10-14 17:21:45.878871,451
2015-10-14 17:21:45.884349,454
2015-10-14 17:21:45.890615,461
2015-10-14 17:21:45.896637,463
2015-10-14 17:21:45.902990,462
2015-10-14 17:21:45.908758,467
2015-10-14 17:21:45.914931,474
2015-10-14 17:21:45.920932,467
2015-10-14 17:21:45.927390,464
2015-10-14 17:21:45.933851,470
2015-10-14 17:21:45.939754,479
2015-10-14 17:21:45.944979,485
2015-10-14 17:21:45.950427,483
2015-10-14 17:21:45.955604,486
2015-10-14 17:21:45.962015,483
2015-10-14 17:21:45.967904,477
2015-10-14 17:21:45.973545,480
2015-10-14 17:21:45.979970,483
2015-10-14 17:21:45.986331,481
2015-10-14 17:21:45.992767,477
2015-10-14 17:21:45.998162,476
2015-10-14 17:21:46.004603,475
2015-10-14 17:21:46.009768,476
2015-10-14 17:21:46.015087,475
2015-10-14 17:21:46.021567,477
2015-10-14 17:21:46.027993,483
2015-10-14 17:21:46.033760,479
2015-10-14 17:21:46.039761,474
2015-10-14 17:21:46.046176,477
2015-10-14 17:21:46.052523,485
2015-10-14 17:21:46.058026,487
2015-10-14 17:21:46.064450,486
2015-10-14 17:21:46.070918,488
2015-10-14 17:21:46.077341,489
2015-10-14 17:21:46.083764,489
2015-10-14 17:21:46.090119,491
2015-10-14 17:21:46.096469,498
2015-10-14 17:21:46.102387,495
2015-10-14 17:21:46.108839,495
2015-10-14 17:21:46.113990,498
2015-10-14 17:21:46.120464,493
2015-10-14 17:21:46.125748,497
2015-10-14 17:21:46.132201,498
2015-10-14 17:21:46.137360,492
2015-10-14 17:21:46.142710,494
2015-10-14 17:21:46.148756,497
2015-10-14 17:21:46.154808,495
2015-10-14 17:21:46.160645,494
2015-10-14 17:21:46.166610,500
2015-10-14 17:21:46.171999,503
2015-10-14 17:21:46.178440,502
2015-10-14 17:21:46.183581,500
2015-10-14 17:21:46.190033,503
2015-10-14 17:21:46.195311,496
2015-10-14 17:21:46.201804,493
2015-10-14 17:21:46.207127,508
2015-10-14 17:21:46.213546,511
2015-10-14 17:21:46.219585,502
2015-10-14 17:21:46.225961,499
2015-10-14 17:21:46.232183,507
2015-10-14 17:21:46.238642,514
2015-10-14 17:21:46.245124,514
2015-10-14 17:21:46.251538,509
2015-10-14 17:21:46.256667,509
2015-10-14 17:21:46.262253,509
2015-10-14 17:21:46.268628,511
2015-10-14 17:21:46.273751,515
2015-10-14 17:21:46.280175,517
2015-10-14 17:21:46.286587,510
2015-10-14 17:21:46.291832,509
2015-10-14 17:21:46.298266,515
2015-10-14 17:21:46.304515,521
2015-10-14 17:21:46.309689,530
2015-10-14 17:21:46.315070,535
2015-10-14 17:21:46.321493,533
2015-10-14 17:21:46.327951,525
2015-10-14 17:21:46.334539,512
2015-10-14 17:21:46.341009,501
2015-10-14 17:21:46.346225,502
2015-10-14 17:21:46.351361,506
2015-10-14 17:21:46.356469,507
2015-10-14 17:21:46.361928,508
2015-10-14 17:21:46.367739,515
2015-10-14 17:21:46.374359,519
2015-10-14 17:21:46.380770,509
2015-10-14 17:21:46.386548,501
2015-10-14 17:21:46.392647,507
2015-10-14 17:21:46.398841,516
2015-10-14 17:21:46.404264,516
2015-10-14 17:21:46.410735,507
2015-10-14 17:21:46.416902,532
2015-10-14 17:21:46.423330,623
2015-10-14 17:21:46.428560,745
2015-10-14 17:21:46.433776,878
2015-10-14 17:21:46.439107,993
2015-10-14 17:21:46.445512,996
2015-10-14 17:21:46.450755,994
2015-10-14 17:21:46.455949,843
2015-10-14 17:21:46.462250,475
2015-10-14 17:21:46.467591,326
2015-10-14 17:21:46.473992,380
2015-10-14 17:21:46.480457,475
2015-10-14 17:21:46.485978,523
2015-10-14 17:21:46.492295,514
2015-10-14 17:21:46.498349,493
2015-10-14 17:21:46.504778,488
2015-10-14 17:21:46.511218,489
2015-10-14 17:21:46.517648,488
2015-10-14 17:21:46.524088,493
2015-10-14 17:21:46.530527,501
2015-10-14 17:21:46.536113,507
2015-10-14 17:21:46.542568,499
2015-10-14 17:21:46.549052,497
2015-10-14 17:21:46.555127,509
2015-10-14 17:21:46.560705,518
2015-10-14 17:21:46.566299,520
2015-10-14 17:21:46.572723,525
2015-10-14 17:21:46.577995,531
2015-10-14 17:21:46.584014,531
2015-10-14 17:21:46.590040,530
2015-10-14 17:21:46.596510,536
2015-10-14 17:21:46.601724,547
2015-10-14 17:21:46.608114,553
2015-10-14 17:21:46.613276,556
2015-10-14 17:21:46.619757,566
2015-10-14 17:21:46.624956,580
2015-10-14 17:21:46.631307,589
2015-10-14 17:21:46.636471,593
2015-10-14 17:21:46.642886,607
2015-10-14 17:21:46.648113,629
2015-10-14 17:21:46.654539,640
2015-10-14 17:21:46.659717,646
2015-10-14 17:21:46.666257,657
2015-10-14 17:21:46.671478,672
2015-10-14 17:21:46.677950,673
2015-10-14 17:21:46.683090,666
2015-10-14 17:21:46.689539,669
2015-10-14 17:21:46.694668,674
2015-10-14 17:21:46.701111,666
2015-10-14 17:21:46.706403,661
2015-10-14 17:21:46.712826,659
2015-10-14 17:21:46.718031,640
2015-10-14 17:21:46.724454,620
2015-10-14 17:21:46.730903,605
2015-10-14 17:21:46.737330,579
2015-10-14 17:21:46.743731,548
2015-10-14 17:21:46.748972,518
2015-10-14 17:21:46.755389,500
2015-10-14 17:21:46.761810,494
2015-10-14 17:21:46.767786,487
2015-10-14 17:21:46.774218,469
2015-10-14 17:21:46.779888,454
2015-10-14 17:21:46.786004,457
2015-10-14 17:21:46.792488,459
2015-10-14 17:21:46.799125,453
2015-10-14 17:21:46.805546,450
2015-10-14 17:21:46.810873,458
2015-10-14 17:21:46.816416,455
2015-10-14 17:21:46.822257,449
2015-10-14 17:21:46.828758,450
2015-10-14 17:21:46.834009,446
2015-10-14 17:21:46.839374,444
2015-10-14 17:21:46.845309,453
2015-10-14 17:21:46.851645,454
2015-10-14 17:21:46.856793,451
2015-10-14 17:21:46.863186,450
2015-10-14 17:21:46.868695,455
2015-10-14 17:21:46.874510,456
2015-10-14 17:21:46.880226,449
2015-10-14 17:21:46.886682,446
2015-10-14 17:21:46.891996,447
2015-10-14 17:21:46.898434,455
2015-10-14 17:21:46.903735,463
2015-10-14 17:21:46.910155,463
2015-10-14 17:21:46.915376,461
2015-10-14 17:21:46.921802,460
2015-10-14 17:21:46.926974,456
2015-10-14 17:21:46.933062,458
2015-10-14 17:21:46.938285,465
2015-10-14 17:21:46.943960,472
2015-10-14 17:21:46.949883,471
2015-10-14 17:21:46.955217,469
2015-10-14 17:21:46.961565,474
2015-10-14 17:21:46.967590,479
2015-10-14 17:21:46.973272,478
2015-10-14 17:21:46.979695,479
2015-10-14 17:21:46.984923,486
2015-10-14 17:21:46.991341,489
2015-10-14 17:21:46.996579,488
2015-10-14 17:21:47.002167,493
2015-10-14 17:21:47.008146,493
2015-10-14 17:21:47.014590,486
2015-10-14 17:21:47.019783,481
2015-10-14 17:21:47.026220,481
2015-10-14 17:21:47.031459,483
2015-10-14 17:21:47.037878,487
2015-10-14 17:21:47.043332,484
2015-10-14 17:21:47.049720,478
2015-10-14 17:21:47.055424,477
2015-10-14 17:21:47.060644,481
2015-10-14 17:21:47.065961,483
2015-10-14 17:21:47.072423,483
2015-10-14 17:21:47.077678,488
2015-10-14 17:21:47.083029,482
2015-10-14 17:21:47.089296,474
2015-10-14 17:21:47.095770,482
2015-10-14 17:21:47.101040,490
2015-10-14 17:21:47.107459,484
2015-10-14 17:21:47.112730,475
2015-10-14 17:21:47.119152,481
2015-10-14 17:21:47.124287,485
2015-10-14 17:21:47.130707,476
2015-10-14 17:21:47.135998,474
2015-10-14 17:21:47.141230,482
2015-10-14 17:21:47.147255,474
2015-10-14 17:21:47.153719,471
2015-10-14 17:21:47.159011,478
2015-10-14 17:21:47.165479,486
2015-10-14 17:21:47.170741,487
2015-10-14 17:21:47.177162,482
2015-10-14 17:21:47.182486,479
2015-10-14 17:21:47.187966,481
2015-10-14 17:21:47.193192,484
2015-10-14 17:21:47.199603,489
2015-10-14 17:21:47.205369,495
2015-10-14 17:21:47.211845,501
2015-10-14 17:21:47.217126,495
2015-10-14 17:21:47.223582,491
2015-10-14 17:21:47.230025,495
2015-10-14 17:21:47.235332,498
2015-10-14 17:21:47.241808,497
2015-10-14 17:21:47.247342,496
2015-10-14 17:21:47.253769,497
2015-10-14 17:21:47.260193,498
2015-10-14 17:21:47.265860,498
2015-10-14 17:21:47.272292,496
2015-10-14 17:21:47.278709,495
2015-10-14 17:21:47.283846,493
2015-10-14 17:21:47.290328,495
2015-10-14 17:21:47.295570,497
2015-10-14 17:21:47.300953,497
2015-10-14 17:21:47.306143,491
2015-10-14 17:21:47.312564,491
2015-10-14 17:21:47.318621,507
2015-10-14 17:21:47.324601,511
2015-10-14 17:21:47.330486,505
2015-10-14 17:21:47.335881,502
2015-10-14 17:21:47.342358,504
2015-10-14 17:21:47.348841,500
2015-10-14 17:21:47.354777,499
2015-10-14 17:21:47.361209,508
2015-10-14 17:21:47.366370,508
2015-10-14 17:21:47.372721,506
2015-10-14 17:21:47.379139,507
2015-10-14 17:21:47.384277,513
2015-10-14 17:21:47.390318,525
2015-10-14 17:21:47.396065,531
2015-10-14 17:21:47.401719,523
2015-10-14 17:21:47.406880,515
2015-10-14 17:21:47.413282,508
2015-10-14 17:21:47.419699,500
2015-10-14 17:21:47.425974,499
2015-10-14 17:21:47.431604,502
2015-10-14 17:21:47.437598,512
2015-10-14 17:21:47.444117,516
2015-10-14 17:21:47.449416,505
2015-10-14 17:21:47.454819,500
2015-10-14 17:21:47.460787,507
2015-10-14 17:21:47.466415,510
2015-10-14 17:21:47.472415,510
2015-10-14 17:21:47.478895,510
2015-10-14 17:21:47.484178,517
2015-10-14 17:21:47.490600,512
2015-10-14 17:21:47.495788,526
2015-10-14 17:21:47.501118,597
2015-10-14 17:21:47.507221,711
2015-10-14 17:21:47.513677,852
2015-10-14 17:21:47.518862,989
2015-10-14 17:21:47.525363,997
2015-10-14 17:21:47.530492,996
2015-10-14 17:21:47.536635,886
2015-10-14 17:21:47.542317,522
2015-10-14 17:21:47.548226,351
2015-10-14 17:21:47.553646,385
2015-10-14 17:21:47.560026,454
2015-10-14 17:21:47.565356,495
2015-10-14 17:21:47.570900,501
2015-10-14 17:21:47.576817,491
2015-10-14 17:21:47.582417,484
2015-10-14 17:21:47.588455,489
2015-10-14 17:21:47.594776,494
2015-10-14 17:21:47.600059,493
2015-10-14 17:21:47.605537,489
2015-10-14 17:21:47.610781,493
2015-10-14 17:21:47.617190,502
2015-10-14 17:21:47.623386,504
2015-10-14 17:21:47.629944,502
2015-10-14 17:21:47.635086,505
2015-10-14 17:21:47.640197,515
2015-10-14 17:21:47.645509,523
2015-10-14 17:21:47.651863,519
2015-10-14 17:21:47.658118,525
2015-10-14 17:21:47.664076,535
2015-10-14 17:21:47.669888,540
2015-10-14 17:21:47.676454,542
2015-10-14 17:21:47.681635,545
2015-10-14 17:21:47.688072,556
2015-10-14 17:21:47.693225,565
2015-10-14 17:21:47.699684,574
2015-10-14 17:21:47.704874,585
2015-10-14 17:21:47.710592,595
2015-10-14 17:21:47.716272,600
2015-10-14 17:21:47.722808,611
2015-10-14 17:21:47.728056,633
2015-10-14 17:21:47.734470,640
2015-10-14 17:21:47.739695,634
2015-10-14 17:21:47.745991,642
2015-10-14 17:21:47.751230,667
2015-10-14 17:21:47.756835,673
2015-10-14 17:21:47.762707,667
2015-10-14 17:21:47.768179,665
2015-10-14 17:21:47.774330,665
2015-10-14 17:21:47.780521,659
2015-10-14 17:21:47.785925,647
2015-10-14 17:21:47.792393,635
2015-10-14 17:21:47.797699,621
2015-10-14 17:21:47.803101,601
2015-10-14 17:21:47.808276,577
2015-10-14 17:21:47.814724,552
2015-10-14 17:21:47.820701,532
2015-10-14 17:21:47.827165,507
2015-10-14 17:21:47.832333,487
2015-10-14 17:21:47.838797,476
2015-10-14 17:21:47.844010,470
2015-10-14 17:21:47.850319,462
2015-10-14 17:21:47.855502,455
2015-10-14 17:21:47.860718,453
2015-10-14 17:21:47.867208,451
2015-10-14 17:21:47.873007,440
2015-10-14 17:21:47.878815,438
2015-10-14 17:21:47.884906,453
2015-10-14 17:21:47.891290,455
2015-10-14 17:21:47.897300,445
2015-10-14 17:21:47.903736,443
2015-10-14 17:21:47.910154,451
2015-10-14 17:21:47.916624,448
2015-10-14 17:21:47.921798,448
2015-10-14 17:21:47.928123,453
2015-10-14 17:21:47.934032,453
2015-10-14 17:21:47.939147,449
2015-10-14 17:21:47.944486,449
2015-10-14 17:21:47.949998,455
2015-10-14 17:21:47.956307,457
2015-10-14 17:21:47.961739,455
2015-10-14 17:21:47.966898,453
2015-10-14 17:21:47.972110,459
2015-10-14 17:21:47.978535,470
2015-10-14 17:21:47.983663,467
2015-10-14 17:21:47.990093,464
2015-10-14 17:21:47.996539,469
2015-10-14 17:21:48.001841,478
2015-10-14 17:21:48.007257,479
2015-10-14 17:21:48.012423,480
2015-10-14 17:21:48.018090,484
2015-10-14 17:21:48.023966,480
2015-10-14 17:21:48.029773,475
2015-10-14 17:21:48.035877,479
2015-10-14 17:21:48.041412,488
2015-10-14 17:21:48.047342,493
2015-10-14 17:21:48.052939,490
2015-10-14 17:21:48.059394,485
2015-10-14 17:21:48.064519,487
2015-10-14 17:21:48.070869,487
2015-10-14 17:21:48.076157,486
2015-10-14 17:21:48.081888,488
2015-10-14 17:21:48.087868,493
2015-10-14 17:21:48.093953,492
2015-10-14 17:21:48.099463,487
2015-10-14 17:21:48.105975,486
2015-10-14 17:21:48.112154,485
2015-10-14 17:21:48.117320,484
2015-10-14 17:21:48.122645,489
2015-10-14 17:21:48.129104,496
2015-10-14 17:21:48.134549,498
2015-10-14 17:21:48.140903,488
2015-10-14 17:21:48.147033,485
2015-10-14 17:21:48.152693,493
2015-10-14 17:21:48.158934,493
2015-10-14 17:21:48.165429,489
2015-10-14 17:21:48.171335,495
2015-10-14 17:21:48.177759,497
2015-10-14 17:21:48.183783,489
2015-10-14 17:21:48.190186,494
2015-10-14 17:21:48.196619,505
2015-10-14 17:21:48.203072,509
2015-10-14 17:21:48.209523,506
2015-10-14 17:21:48.215503,496
2015-10-14 17:21:48.221011,495
2015-10-14 17:21:48.227087,498
2015-10-14 17:21:48.233550,495
2015-10-14 17:21:48.238715,500
2015-10-14 17:21:48.245225,508
2015-10-14 17:21:48.250549,506
2015-10-14 17:21:48.255994,501
2015-10-14 17:21:48.261173,504
2015-10-14 17:21:48.266706,508
2015-10-14 17:21:48.273142,505
2015-10-14 17:21:48.279390,496
2015-10-14 17:21:48.285075,497
2015-10-14 17:21:48.290560,507
2015-10-14 17:21:48.296763,503
2015-10-14 17:21:48.303218,498
2015-10-14 17:21:48.308583,505
2015-10-14 17:21:48.313773,511
2015-10-14 17:21:48.319985,507
2015-10-14 17:21:48.326455,500
2015-10-14 17:21:48.331680,499
2015-10-14 17:21:48.337973,504
2015-10-14 17:21:48.343367,506
2015-10-14 17:21:48.349093,508
2015-10-14 17:21:48.354784,516
2015-10-14 17:21:48.360059,518
2015-10-14 17:21:48.366491,512
2015-10-14 17:21:48.373147,516
2015-10-14 17:21:48.378256,517
2015-10-14 17:21:48.383981,513
2015-10-14 17:21:48.390481,511
2015-10-14 17:21:48.396904,515
2015-10-14 17:21:48.403310,522
2015-10-14 17:21:48.409676,526
2015-10-14 17:21:48.416081,521
2015-10-14 17:21:48.421675,516
2015-10-14 17:21:48.428061,511
2015-10-14 17:21:48.433451,496
2015-10-14 17:21:48.439014,486
2015-10-14 17:21:48.444321,492
2015-10-14 17:21:48.449849,504
2015-10-14 17:21:48.456296,505
2015-10-14 17:21:48.461773,505
2015-10-14 17:21:48.468160,502
2015-10-14 17:21:48.474540,496
2015-10-14 17:21:48.480077,496
2015-10-14 17:21:48.485835,502
2015-10-14 17:21:48.490975,510
2015-10-14 17:21:48.497293,524
2015-10-14 17:21:48.503720,524
2015-10-14 17:21:48.510144,530
2015-10-14 17:21:48.516654,575
2015-10-14 17:21:48.523092,654
2015-10-14 17:21:48.529033,766
2015-10-14 17:21:48.534468,904
2015-10-14 17:21:48.540560,989
2015-10-14 17:21:48.546966,984
2015-10-14 17:21:48.552623,839
2015-10-14 17:21:48.558146,519
2015-10-14 17:21:48.563794,340
2015-10-14 17:21:48.570257,375
2015-10-14 17:21:48.575585,432
2015-10-14 17:21:48.582027,475
2015-10-14 17:21:48.587152,504
2015-10-14 17:21:48.593583,507
2015-10-14 17:21:48.598749,498
2015-10-14 17:21:48.605148,495
2015-10-14 17:21:48.610529,496
2015-10-14 17:21:48.616750,497
2015-10-14 17:21:48.622148,503
2015-10-14 17:21:48.628563,511
2015-10-14 17:21:48.633750,509
2015-10-14 17:21:48.639776,501
2015-10-14 17:21:48.645091,503
2015-10-14 17:21:48.651502,514
2015-10-14 17:21:48.656624,518
2015-10-14 17:21:48.661880,521
2015-10-14 17:21:48.667049,522
2015-10-14 17:21:48.673530,524
2015-10-14 17:21:48.680149,535
2015-10-14 17:21:48.686263,540
2015-10-14 17:21:48.691571,540
2015-10-14 17:21:48.697333,551
2015-10-14 17:21:48.703157,559
2015-10-14 17:21:48.709336,563
2015-10-14 17:21:48.714775,573
2015-10-14 17:21:48.721281,587
2015-10-14 17:21:48.726514,593
2015-10-14 17:21:48.733015,593
2015-10-14 17:21:48.738191,601
2015-10-14 17:21:48.744087,619
2015-10-14 17:21:48.749602,636
2015-10-14 17:21:48.756005,646
2015-10-14 17:21:48.761149,649
2015-10-14 17:21:48.766620,648
2015-10-14 17:21:48.772909,648
2015-10-14 17:21:48.778671,664
2015-10-14 17:21:48.784332,677
2015-10-14 17:21:48.790768,668
2015-10-14 17:21:48.796305,654
2015-10-14 17:21:48.802886,646
2015-10-14 17:21:48.809348,638
2015-10-14 17:21:48.815903,618
2015-10-14 17:21:48.822426,587
2015-10-14 17:21:48.828882,564
2015-10-14 17:21:48.835329,546
2015-10-14 17:21:48.841758,522
2015-10-14 17:21:48.847852,494
2015-10-14 17:21:48.854087,471
2015-10-14 17:21:48.860562,461
2015-10-14 17:21:48.865941,449
2015-10-14 17:21:48.871127,439
2015-10-14 17:21:48.877297,432
2015-10-14 17:21:48.883798,421
2015-10-14 17:21:48.889005,425
2015-10-14 17:21:48.895412,437
2015-10-14 17:21:48.900781,430
2015-10-14 17:21:48.906933,421
2015-10-14 17:21:48.912265,417
2015-10-14 17:21:48.918428,418
2015-10-14 17:21:48.923757,429
2015-10-14 17:21:48.930314,435
2015-10-14 17:21:48.935503,426
2015-10-14 17:21:48.941952,422
2015-10-14 17:21:48.947651,428
2015-10-14 17:21:48.954073,434
2015-10-14 17:21:48.960168,427
2015-10-14 17:21:48.966590,426
2015-10-14 17:21:48.973065,438
2015-10-14 17:21:48.979479,443
2015-10-14 17:21:48.985924,440
2015-10-14 17:21:48.991104,439
2015-10-14 17:21:48.997549,444
2015-10-14 17:21:49.003960,451
2015-10-14 17:21:49.009312,451
2015-10-14 17:21:49.015726,452
2015-10-14 17:21:49.022205,457
2015-10-14 17:21:49.028245,456
2015-10-14 17:21:49.034751,458
2015-10-14 17:21:49.040078,462
2015-10-14 17:21:49.046009,463
2015-10-14 17:21:49.051355,458
2015-10-14 17:21:49.057785,456
2015-10-14 17:21:49.063135,465
2015-10-14 17:21:49.068420,474
2015-10-14 17:21:49.073682,467
2015-10-14 17:21:49.080115,458
2015-10-14 17:21:49.086222,458
2015-10-14 17:21:49.092699,468
2015-10-14 17:21:49.097972,475
2015-10-14 17:21:49.104137,469
2015-10-14 17:21:49.109514,468
2015-10-14 17:21:49.116023,474
2015-10-14 17:21:49.121399,474
2015-10-14 17:21:49.127821,469
2015-10-14 17:21:49.134364,471
2015-10-14 17:21:49.140771,473
2015-10-14 17:21:49.147197,468
2015-10-14 17:21:49.153554,465
2015-10-14 17:21:49.158780,474
2015-10-14 17:21:49.165213,480
2015-10-14 17:21:49.170385,474
2015-10-14 17:21:49.176162,474
2015-10-14 17:21:49.181331,477
2015-10-14 17:21:49.187119,471
2015-10-14 17:21:49.193543,463
2015-10-14 17:21:49.199033,474
2015-10-14 17:21:49.205484,489
2015-10-14 17:21:49.211903,479
2015-10-14 17:21:49.218376,471
2015-10-14 17:21:49.224844,475
2015-10-14 17:21:49.231285,485
2015-10-14 17:21:49.237186,485
2015-10-14 17:21:49.243717,479
2015-10-14 17:21:49.248971,477
2015-10-14 17:21:49.255335,473
2015-10-14 17:21:49.260590,474
2015-10-14 17:21:49.267114,482
2015-10-14 17:21:49.273608,490
2015-10-14 17:21:49.279526,488
2015-10-14 17:21:49.285809,480
2015-10-14 17:21:49.292220,475
2015-10-14 17:21:49.297489,484
2015-10-14 17:21:49.303929,488
2015-10-14 17:21:49.310426,487
2015-10-14 17:21:49.316522,484
2015-10-14 17:21:49.322947,481
2015-10-14 17:21:49.329407,485
2015-10-14 17:21:49.335873,497
2015-10-14 17:21:49.341644,506
2015-10-14 17:21:49.347717,507
2015-10-14 17:21:49.353308,507
2015-10-14 17:21:49.359802,509
2015-10-14 17:21:49.364982,507
2015-10-14 17:21:49.371400,497
2015-10-14 17:21:49.376690,485
2015-10-14 17:21:49.383111,480
2015-10-14 17:21:49.388296,488
2015-10-14 17:21:49.394698,487
2015-10-14 17:21:49.400000,484
2015-10-14 17:21:49.406420,489
2015-10-14 17:21:49.411652,491
2015-10-14 17:21:49.418066,488
2015-10-14 17:21:49.424035,488
2015-10-14 17:21:49.430497,488
2015-10-14 17:21:49.436932,492
2015-10-14 17:21:49.443349,505
2015-10-14 17:21:49.449790,511
2015-10-14 17:21:49.456215,517
2015-10-14 17:21:49.461790,551
2015-10-14 17:21:49.467756,636
2015-10-14 17:21:49.474247,743
2015-10-14 17:21:49.480669,882
2015-10-14 17:21:49.487078,980
2015-10-14 17:21:49.492619,983
2015-10-14 17:21:49.498706,893
2015-10-14 17:21:49.504327,607
2015-10-14 17:21:49.510819,350
2015-10-14 17:21:49.516108,340
2015-10-14 17:21:49.521389,409
2015-10-14 17:21:49.527452,458
2015-10-14 17:21:49.533917,490
2015-10-14 17:21:49.539335,503
2015-10-14 17:21:49.545512,496
2015-10-14 17:21:49.550761,485
2015-10-14 17:21:49.556516,483
2015-10-14 17:21:49.562294,486
2015-10-14 17:21:49.568127,491
2015-10-14 17:21:49.574049,497
2015-10-14 17:21:49.580513,496
2015-10-14 17:21:49.585664,489
2015-10-14 17:21:49.592076,500
2015-10-14 17:21:49.597387,517
2015-10-14 17:21:49.603843,514
2015-10-14 17:21:49.610293,512
2015-10-14 17:21:49.616834,517
2015-10-14 17:21:49.623278,521
2015-10-14 17:21:49.629698,525
2015-10-14 17:21:49.636126,534
2015-10-14 17:21:49.641410,540
2015-10-14 17:21:49.647792,543
2015-10-14 17:21:49.653360,549
2015-10-14 17:21:49.659779,555
2015-10-14 17:21:49.666221,565
2015-10-14 17:21:49.672102,578
2015-10-14 17:21:49.678402,585
2015-10-14 17:21:49.683795,585
2015-10-14 17:21:49.690026,599
2015-10-14 17:21:49.696503,622
2015-10-14 17:21:49.701801,637
2015-10-14 17:21:49.708231,643
2015-10-14 17:21:49.713333,651
2015-10-14 17:21:49.719813,655
2015-10-14 17:21:49.725048,658
2015-10-14 17:21:49.731454,665
2015-10-14 17:21:49.737844,669
2015-10-14 17:21:49.743480,668
2015-10-14 17:21:49.749031,661
2015-10-14 17:21:49.755414,657
2015-10-14 17:21:49.761815,652
2015-10-14 17:21:49.768232,630
2015-10-14 17:21:49.773594,601
2015-10-14 17:21:49.780008,577
2015-10-14 17:21:49.786486,549
2015-10-14 17:21:49.792897,517
2015-10-14 17:21:49.799339,493
2015-10-14 17:21:49.804726,483
2015-10-14 17:21:49.811142,471
2015-10-14 17:21:49.816644,453
2015-10-14 17:21:49.821836,445
2015-10-14 17:21:49.828299,440
2015-10-14 17:21:49.834758,436
2015-10-14 17:21:49.840928,435
2015-10-14 17:21:49.846221,430
2015-10-14 17:21:49.852497,430
2015-10-14 17:21:49.858948,429
2015-10-14 17:21:49.864339,425
2015-10-14 17:21:49.870792,428
2015-10-14 17:21:49.875963,436
2015-10-14 17:21:49.881976,429
2015-10-14 17:21:49.887357,418
2015-10-14 17:21:49.893164,418
2015-10-14 17:21:49.898917,429
2015-10-14 17:21:49.904177,434
2015-10-14 17:21:49.909305,434
2015-10-14 17:21:49.914428,431
2015-10-14 17:21:49.920767,430
2015-10-14 17:21:49.927158,430
2015-10-14 17:21:49.933567,436
2015-10-14 17:21:49.939937,442
2015-10-14 17:21:49.945459,442
2015-10-14 17:21:49.951068,438
2015-10-14 17:21:49.956992,445
2015-10-14 17:21:49.963445,454
2015-10-14 17:21:49.968771,451
2015-10-14 17:21:49.974468,444
2015-10-14 17:21:49.980358,451
2015-10-14 17:21:49.986830,466
2015-10-14 17:21:49.992187,466
2015-10-14 17:21:49.998017,461
2015-10-14 17:21:50.003454,461
2015-10-14 17:21:50.010504,464
2015-10-14 17:21:50.016096,466
2015-10-14 17:21:50.022266,465
2015-10-14 17:21:50.028784,467
2015-10-14 17:21:50.034922,470
2015-10-14 17:21:50.040207,471
2015-10-14 17:21:50.046674,469
2015-10-14 17:21:50.052176,473
2015-10-14 17:21:50.058412,476
2015-10-14 17:21:50.064149,470
2015-10-14 17:21:50.070503,465
2015-10-14 17:21:50.075986,471
2015-10-14 17:21:50.082421,479
2015-10-14 17:21:50.088070,480
2015-10-14 17:21:50.094562,478
2015-10-14 17:21:50.100995,478
2015-10-14 17:21:50.106250,477
2015-10-14 17:21:50.112160,475
2015-10-14 17:21:50.117750,473
2015-10-14 17:21:50.124159,475
2015-10-14 17:21:50.129291,481
2015-10-14 17:21:50.134934,480
2015-10-14 17:21:50.141372,480
2015-10-14 17:21:50.147817,486
2015-10-14 17:21:50.154214,485
2015-10-14 17:21:50.159457,477
2015-10-14 17:21:50.165874,474
2015-10-14 17:21:50.172067,478
2015-10-14 17:21:50.177557,480
2015-10-14 17:21:50.183722,478
2015-10-14 17:21:50.189210,481
2015-10-14 17:21:50.194357,486
2015-10-14 17:21:50.200802,487
2015-10-14 17:21:50.207193,488
2015-10-14 17:21:50.212392,488
2015-10-14 17:21:50.218816,481
2015-10-14 17:21:50.224029,481
2015-10-14 17:21:50.229669,487
2015-10-14 17:21:50.234780,489
2015-10-14 17:21:50.241123,489
2015-10-14 17:21:50.247293,487
2015-10-14 17:21:50.252835,491
2015-10-14 17:21:50.258877,497
2015-10-14 17:21:50.264111,497
2015-10-14 17:21:50.269237,496
2015-10-14 17:21:50.274544,495
2015-10-14 17:21:50.279712,502
2015-10-14 17:21:50.285034,505
2015-10-14 17:21:50.291384,499
2015-10-14 17:21:50.297707,500
2015-10-14 17:21:50.303937,501
2015-10-14 17:21:50.310575,492
2015-10-14 17:21:50.316902,494
2015-10-14 17:21:50.323286,514
2015-10-14 17:21:50.328652,524
2015-10-14 17:21:50.335235,518
2015-10-14 17:21:50.340473,514
2015-10-14 17:21:50.346710,517
2015-10-14 17:21:50.352137,518
2015-10-14 17:21:50.358495,509
2015-10-14 17:21:50.364912,499
2015-10-14 17:21:50.370672,498
2015-10-14 17:21:50.376027,500
2015-10-14 17:21:50.381575,495
2015-10-14 17:21:50.387955,493
2015-10-14 17:21:50.394423,500
2015-10-14 17:21:50.400303,498
2015-10-14 17:21:50.405836,491
2015-10-14 17:21:50.411222,493
2015-10-14 17:21:50.417666,499
2015-10-14 17:21:50.423653,500
2015-10-14 17:21:50.429041,502
2015-10-14 17:21:50.435395,507
2015-10-14 17:21:50.441766,521
2015-10-14 17:21:50.447375,563
2015-10-14 17:21:50.452888,659
2015-10-14 17:21:50.459261,785
2015-10-14 17:21:50.465083,925
2015-10-14 17:21:50.470755,993
2015-10-14 17:21:50.477050,991
2015-10-14 17:21:50.483471,920
2015-10-14 17:21:50.489353,635
2015-10-14 17:21:50.495842,361
2015-10-14 17:21:50.502336,334
2015-10-14 17:21:50.508744,412
2015-10-14 17:21:50.514330,478
2015-10-14 17:21:50.519706,493
2015-10-14 17:21:50.525895,481
2015-10-14 17:21:50.532347,484
2015-10-14 17:21:50.538280,492
2015-10-14 17:21:50.543555,486
2015-10-14 17:21:50.549169,480
2015-10-14 17:21:50.555600,485
2015-10-14 17:21:50.561051,490
2015-10-14 17:21:50.567549,488
2015-10-14 17:21:50.573255,485
2015-10-14 17:21:50.578494,488
2015-10-14 17:21:50.584014,504
2015-10-14 17:21:50.589551,510
2015-10-14 17:21:50.595665,505
2015-10-14 17:21:50.602043,511
2015-10-14 17:21:50.607271,516
2015-10-14 17:21:50.613169,511
2015-10-14 17:21:50.618911,517
2015-10-14 17:21:50.625410,527
2015-10-14 17:21:50.630513,529
2015-10-14 17:21:50.635656,534
2015-10-14 17:21:50.642001,546
2015-10-14 17:21:50.647707,549
2015-10-14 17:21:50.653724,551
2015-10-14 17:21:50.660088,557
2015-10-14 17:21:50.665288,565
2015-10-14 17:21:50.671769,583
2015-10-14 17:21:50.676889,601
2015-10-14 17:21:50.683329,613
2015-10-14 17:21:50.688595,624
2015-10-14 17:21:50.695021,638
2015-10-14 17:21:50.700239,645
2015-10-14 17:21:50.706645,648
2015-10-14 17:21:50.711906,648
2015-10-14 17:21:50.718363,652
2015-10-14 17:21:50.724090,652
2015-10-14 17:21:50.730511,648
2015-10-14 17:21:50.736197,639
2015-10-14 17:21:50.741433,622
2015-10-14 17:21:50.747311,609
2015-10-14 17:21:50.753846,594
2015-10-14 17:21:50.759099,566
2015-10-14 17:21:50.765519,544
2015-10-14 17:21:50.771968,527
2015-10-14 17:21:50.778386,501
2015-10-14 17:21:50.784197,476
2015-10-14 17:21:50.790602,457
2015-10-14 17:21:50.797020,445
2015-10-14 17:21:50.803460,439
2015-10-14 17:21:50.809901,430
2015-10-14 17:21:50.816278,421
2015-10-14 17:21:50.822450,424
2015-10-14 17:21:50.827852,430
2015-10-14 17:21:50.834247,422
2015-10-14 17:21:50.839484,415
2015-10-14 17:21:50.845882,418
2015-10-14 17:21:50.851809,422
2015-10-14 17:21:50.858207,422
2015-10-14 17:21:50.864681,419
2015-10-14 17:21:50.869983,417
2015-10-14 17:21:50.876407,420
2015-10-14 17:21:50.882765,420
2015-10-14 17:21:50.889150,420
2015-10-14 17:21:50.895372,423
2015-10-14 17:21:50.901764,427
2015-10-14 17:21:50.908203,424
2015-10-14 17:21:50.913830,421
2015-10-14 17:21:50.920238,427
2015-10-14 17:21:50.926718,430
2015-10-14 17:21:50.932430,424
2015-10-14 17:21:50.938972,433
2015-10-14 17:21:50.945346,447
2015-10-14 17:21:50.950886,442
2015-10-14 17:21:50.956618,432
2015-10-14 17:21:50.963053,436
2015-10-14 17:21:50.968996,446
2015-10-14 17:21:50.975462,448
2015-10-14 17:21:50.981891,440
2015-10-14 17:21:50.988314,441
2015-10-14 17:21:50.994740,451
2015-10-14 17:21:51.000201,459
2015-10-14 17:21:51.006650,456
2015-10-14 17:21:51.013091,457
2015-10-14 17:21:51.019570,460
2015-10-14 17:21:51.025246,459
2015-10-14 17:21:51.031769,455
2015-10-14 17:21:51.036982,456
2015-10-14 17:21:51.043423,467
2015-10-14 17:21:51.048552,471
2015-10-14 17:21:51.053712,464
2015-10-14 17:21:51.059985,462
2015-10-14 17:21:51.066452,464
2015-10-14 17:21:51.071692,463
2015-10-14 17:21:51.078189,462
2015-10-14 17:21:51.083506,462
2015-10-14 17:21:51.089998,460
2015-10-14 17:21:51.095877,458
2015-10-14 17:21:51.102288,458
2015-10-14 17:21:51.108716,462
2015-10-14 17:21:51.115134,464
2015-10-14 17:21:51.121609,463
2015-10-14 17:21:51.128033,458
2015-10-14 17:21:51.134478,456
2015-10-14 17:21:51.140908,469
2015-10-14 17:21:51.147237,473
2015-10-14 17:21:51.152930,468
2015-10-14 17:21:51.159393,467
2015-10-14 17:21:51.164570,471
2015-10-14 17:21:51.170167,469
2015-10-14 17:21:51.176278,467
2015-10-14 17:21:51.182697,476
2015-10-14 17:21:51.187954,480
2015-10-14 17:21:51.194366,470
2015-10-14 17:21:51.199541,472
2015-10-14 17:21:51.205954,481
2015-10-14 17:21:51.211239,473
2015-10-14 17:21:51.217653,470
2015-10-14 17:21:51.222803,481
2015-10-14 17:21:51.229223,486
2015-10-14 17:21:51.234456,479
2015-10-14 17:21:51.240178,471
2015-10-14 17:21:51.245834,469
2015-10-14 17:21:51.252400,480
2015-10-14 17:21:51.258088,492
2015-10-14 17:21:51.263217,487
2015-10-14 17:21:51.269059,480
2015-10-14 17:21:51.274224,486
2015-10-14 17:21:51.280669,493
2015-10-14 17:21:51.286345,491
2015-10-14 17:21:51.292268,489
2015-10-14 17:21:51.298732,486
2015-10-14 17:21:51.304129,485
2015-10-14 17:21:51.310559,492
2015-10-14 17:21:51.315728,503
2015-10-14 17:21:51.322060,500
2015-10-14 17:21:51.327176,494
2015-10-14 17:21:51.333600,493
2015-10-14 17:21:51.338852,495
2015-10-14 17:21:51.345262,497
2015-10-14 17:21:51.350457,494
2015-10-14 17:21:51.356748,493
2015-10-14 17:21:51.361977,497
2015-10-14 17:21:51.368031,506
2015-10-14 17:21:51.373823,511
2015-10-14 17:21:51.379419,510
2015-10-14 17:21:51.385140,509
2015-10-14 17:21:51.391640,508
2015-10-14 17:21:51.397027,506
2015-10-14 17:21:51.403449,505
2015-10-14 17:21:51.409812,492
2015-10-14 17:21:51.416243,478
2015-10-14 17:21:51.422690,486
2015-10-14 17:21:51.429109,499
2015-10-14 17:21:51.435560,495
2015-10-14 17:21:51.441383,490
2015-10-14 17:21:51.447267,495
2015-10-14 17:21:51.452423,499
2015-10-14 17:21:51.458779,492
2015-10-14 17:21:51.465190,486
2015-10-14 17:21:51.470398,496
2015-10-14 17:21:51.475754,510
2015-10-14 17:21:51.482176,505
2015-10-14 17:21:51.488638,513
2015-10-14 17:21:51.495096,576
2015-10-14 17:21:51.501275,682
2015-10-14 17:21:51.507850,804
2015-10-14 17:21:51.513068,942
2015-10-14 17:21:51.519524,995
2015-10-14 17:21:51.524685,993
2015-10-14 17:21:51.531097,905
2015-10-14 17:21:51.536334,570
2015-10-14 17:21:51.542791,333
2015-10-14 17:21:51.548796,346
2015-10-14 17:21:51.555215,431
2015-10-14 17:21:51.560659,493
2015-10-14 17:21:51.567079,512
2015-10-14 17:21:51.573482,500
2015-10-14 17:21:51.579905,485
2015-10-14 17:21:51.585866,482
2015-10-14 17:21:51.592107,491
2015-10-14 17:21:51.598272,492
2015-10-14 17:21:51.604689,496
2015-10-14 17:21:51.611131,502
2015-10-14 17:21:51.617396,501
2015-10-14 17:21:51.623928,500
2015-10-14 17:21:51.629163,508
2015-10-14 17:21:51.635592,511
2015-10-14 17:21:51.642081,512
2015-10-14 17:21:51.647879,520
2015-10-14 17:21:51.654172,524
2015-10-14 17:21:51.660580,527
2015-10-14 17:21:51.667021,534
2015-10-14 17:21:51.672251,539
2015-10-14 17:21:51.678664,539
2015-10-14 17:21:51.685105,541
2015-10-14 17:21:51.691555,553
2015-10-14 17:21:51.698002,563
2015-10-14 17:21:51.704422,570
2015-10-14 17:21:51.710234,579
2015-10-14 17:21:51.716752,585
2015-10-14 17:21:51.721960,589
2015-10-14 17:21:51.728118,600
2015-10-14 17:21:51.733455,614
2015-10-14 17:21:51.739793,627
2015-10-14 17:21:51.745070,634
2015-10-14 17:21:51.750955,646
2015-10-14 17:21:51.756710,663
2015-10-14 17:21:51.763172,664
2015-10-14 17:21:51.768444,655
2015-10-14 17:21:51.774063,661
2015-10-14 17:21:51.779886,663
2015-10-14 17:21:51.786398,654
2015-10-14 17:21:51.791650,649
2015-10-14 17:21:51.796945,645
2015-10-14 17:21:51.803136,632
2015-10-14 17:21:51.808544,603
2015-10-14 17:21:51.814670,573
2015-10-14 17:21:51.821104,547
2015-10-14 17:21:51.826436,527
2015-10-14 17:21:51.832855,508
2015-10-14 17:21:51.838135,484
2015-10-14 17:21:51.844582,471
2015-10-14 17:21:51.850277,460
2015-10-14 17:21:51.856683,443
2015-10-14 17:21:51.862285,440
2015-10-14 17:21:51.868709,446
2015-10-14 17:21:51.874629,442
2015-10-14 17:21:51.881049,434
2015-10-14 17:21:51.886871,432
2015-10-14 17:21:51.893342,432
2015-10-14 17:21:51.899767,435
2015-10-14 17:21:51.906228,437
2015-10-14 17:21:51.912247,433
2015-10-14 17:21:51.918687,433
2015-10-14 17:21:51.925165,438
2015-10-14 17:21:51.930865,438
2015-10-14 17:21:51.937386,439
2015-10-14 17:21:51.942596,438
2015-10-14 17:21:51.948975,434
2015-10-14 17:21:51.954349,439
2015-10-14 17:21:51.960077,443
2015-10-14 17:21:51.965686,447
2015-10-14 17:21:51.972145,449
2015-10-14 17:21:51.977298,446
2015-10-14 17:21:51.983775,444
2015-10-14 17:21:51.989062,447
2015-10-14 17:21:51.995224,452
2015-10-14 17:21:52.000533,457
2015-10-14 17:21:52.007059,461
2015-10-14 17:21:52.012384,459
2015-10-14 17:21:52.018805,451
2015-10-14 17:21:52.025231,453
2015-10-14 17:21:52.031651,462
2015-10-14 17:21:52.038124,466
2015-10-14 17:21:52.044594,464
2015-10-14 17:21:52.050979,468
2015-10-14 17:21:52.057389,467
2015-10-14 17:21:52.063835,466
2015-10-14 17:21:52.070405,475
2015-10-14 17:21:52.076846,481
2015-10-14 17:21:52.083276,480
2015-10-14 17:21:52.089704,476
2015-10-14 17:21:52.095147,474
2015-10-14 17:21:52.100379,476
2015-10-14 17:21:52.105487,479
2015-10-14 17:21:52.111217,479
2015-10-14 17:21:52.116630,475
2015-10-14 17:21:52.123122,475
2015-10-14 17:21:52.128394,480
2015-10-14 17:21:52.134692,477
2015-10-14 17:21:52.139980,474
2015-10-14 17:21:52.146432,474
2015-10-14 17:21:52.152335,475
2015-10-14 17:21:52.158219,474
2015-10-14 17:21:52.164685,479
2015-10-14 17:21:52.170440,485
2015-10-14 17:21:52.176889,484
2015-10-14 17:21:52.182966,478
2015-10-14 17:21:52.189423,477
2015-10-14 17:21:52.194725,483
2015-10-14 17:21:52.200195,493
2015-10-14 17:21:52.205804,490
2015-10-14 17:21:52.212147,486
2015-10-14 17:21:52.217751,488
2015-10-14 17:21:52.224255,485
2015-10-14 17:21:52.230716,478
2015-10-14 17:21:52.237165,482
2015-10-14 17:21:52.243613,494
2015-10-14 17:21:52.249968,490
2015-10-14 17:21:52.255906,492
2015-10-14 17:21:52.261434,494
2015-10-14 17:21:52.267561,493
2015-10-14 17:21:52.274031,492
2015-10-14 17:21:52.279407,490
2015-10-14 17:21:52.285840,491
2015-10-14 17:21:52.291044,497
2015-10-14 17:21:52.296252,498
2015-10-14 17:21:52.302395,493
2015-10-14 17:21:52.308846,491
2015-10-14 17:21:52.314057,496
2015-10-14 17:21:52.319410,498
2015-10-14 17:21:52.325538,501
2015-10-14 17:21:52.332087,500
2015-10-14 17:21:52.337496,492
2015-10-14 17:21:52.343911,495
2015-10-14 17:21:52.349616,505
2015-10-14 17:21:52.356014,507
2015-10-14 17:21:52.361211,500
2015-10-14 17:21:52.367651,501
2015-10-14 17:21:52.372819,504
2015-10-14 17:21:52.379241,505
2015-10-14 17:21:52.385694,509
2015-10-14 17:21:52.392108,512
2015-10-14 17:21:52.398559,516
2015-10-14 17:21:52.404999,516
2015-10-14 17:21:52.410304,511
2015-10-14 17:21:52.415725,509
2015-10-14 17:21:52.421581,514
2015-10-14 17:21:52.428089,523
2015-10-14 17:21:52.434531,535
2015-10-14 17:21:52.440264,537
2015-10-14 17:21:52.446162,535
2015-10-14 17:21:52.451976,527
2015-10-14 17:21:52.457484,513
2015-10-14 17:21:52.463910,508
2015-10-14 17:21:52.470386,514
2015-10-14 17:21:52.476533,512
2015-10-14 17:21:52.483103,504
2015-10-14 17:21:52.489118,504
2015-10-14 17:21:52.495537,509
2015-10-14 17:21:52.501992,507
2015-10-14 17:21:52.508148,502
2015-10-14 17:21:52.513318,510
2015-10-14 17:21:52.518484,519
2015-10-14 17:21:52.523788,511
2015-10-14 17:21:52.529362,511
2015-10-14 17:21:52.534809,517
2015-10-14 17:21:52.541214,531
2015-10-14 17:21:52.546404,583
2015-10-14 17:21:52.551597,683
2015-10-14 17:21:52.557859,807
2015-10-14 17:21:52.564276,948
2015-10-14 17:21:52.570150,995
2015-10-14 17:21:52.576189,995
2015-10-14 17:21:52.582651,933
2015-10-14 17:21:52.589037,612
2015-10-14 17:21:52.594538,364
2015-10-14 17:21:52.600975,365
2015-10-14 17:21:52.607453,438
2015-10-14 17:21:52.612887,494
2015-10-14 17:21:52.619289,518
2015-10-14 17:21:52.624726,516
2015-10-14 17:21:52.630163,507
2015-10-14 17:21:52.635319,499
2015-10-14 17:21:52.641780,494
2015-10-14 17:21:52.647289,494
2015-10-14 17:21:52.652571,500
2015-10-14 17:21:52.658350,507
2015-10-14 17:21:52.663716,512
2015-10-14 17:21:52.669350,515
2015-10-14 17:21:52.675064,515
2015-10-14 17:21:52.681334,513
2015-10-14 17:21:52.687534,519
2015-10-14 17:21:52.692904,526
2015-10-14 17:21:52.698037,532
2015-10-14 17:21:52.703595,543
2015-10-14 17:21:52.709934,542
2015-10-14 17:21:52.716359,540
2015-10-14 17:21:52.721709,543
2015-10-14 17:21:52.727885,546
2015-10-14 17:21:52.733186,551
2015-10-14 17:21:52.739577,559
2015-10-14 17:21:52.744722,574
2015-10-14 17:21:52.750185,591
2015-10-14 17:21:52.756527,600
2015-10-14 17:21:52.762369,602
2015-10-14 17:21:52.767923,601
2015-10-14 17:21:52.774376,612
2015-10-14 17:21:52.780814,642
2015-10-14 17:21:52.787246,659
2015-10-14 17:21:52.793330,660
2015-10-14 17:21:52.799751,659
2015-10-14 17:21:52.806177,661
2015-10-14 17:21:52.812618,668
2015-10-14 17:21:52.819094,665
2015-10-14 17:21:52.824252,661
2015-10-14 17:21:52.830627,663
2015-10-14 17:21:52.836397,655
2015-10-14 17:21:52.842853,644
2015-10-14 17:21:52.848114,630
2015-10-14 17:21:52.853300,612
2015-10-14 17:21:52.859652,588
2015-10-14 17:21:52.866143,564
2015-10-14 17:21:52.871359,538
2015-10-14 17:21:52.877310,518
2015-10-14 17:21:52.882883,508
2015-10-14 17:21:52.889437,482
2015-10-14 17:21:52.894740,461
2015-10-14 17:21:52.900390,455
2015-10-14 17:21:52.906731,455
2015-10-14 17:21:52.913153,451
2015-10-14 17:21:52.919631,446
2015-10-14 17:21:52.926082,441
2015-10-14 17:21:52.931265,435
2015-10-14 17:21:52.937675,436
2015-10-14 17:21:52.942991,447
2015-10-14 17:21:52.948200,449
2015-10-14 17:21:52.954548,442
2015-10-14 17:21:52.959917,438
2015-10-14 17:21:52.965186,448
2015-10-14 17:21:52.970735,444
2015-10-14 17:21:52.975971,433
2015-10-14 17:21:52.982408,439
2015-10-14 17:21:52.988842,451
2015-10-14 17:21:52.995296,452
2015-10-14 17:21:53.001752,444
2015-10-14 17:21:53.008173,441
2015-10-14 17:21:53.014623,451
2015-10-14 17:21:53.021110,460
2015-10-14 17:21:53.027571,460
2015-10-14 17:21:53.033847,457
2015-10-14 17:21:53.040265,460
2015-10-14 17:21:53.045377,464
2015-10-14 17:21:53.050518,455
2015-10-14 17:21:53.056998,455
2015-10-14 17:21:53.062468,468
2015-10-14 17:21:53.068675,467
2015-10-14 17:21:53.074709,459
2015-10-14 17:21:53.080309,460
2015-10-14 17:21:53.086901,466
2015-10-14 17:21:53.093416,470
2015-10-14 17:21:53.098581,470
2015-10-14 17:21:53.103759,470
2015-10-14 17:21:53.110176,474
2015-10-14 17:21:53.115263,473
2015-10-14 17:21:53.121676,470
2015-10-14 17:21:53.126822,477
2015-10-14 17:21:53.133242,479
2015-10-14 17:21:53.138484,469
2015-10-14 17:21:53.143795,467
2015-10-14 17:21:53.149884,474
2015-10-14 17:21:53.156323,479
2015-10-14 17:21:53.161645,466
2015-10-14 17:21:53.168117,461
2015-10-14 17:21:53.173327,474
2015-10-14 17:21:53.179748,473
2015-10-14 17:21:53.185019,469
2015-10-14 17:21:53.191431,467
2015-10-14 17:21:53.196647,472
2015-10-14 17:21:53.203068,469
2015-10-14 17:21:53.208286,469
2015-10-14 17:21:53.214699,479
2015-10-14 17:21:53.219868,488
2015-10-14 17:21:53.226279,481
2015-10-14 17:21:53.231468,473
2015-10-14 17:21:53.237463,472
2015-10-14 17:21:53.242760,477
2015-10-14 17:21:53.248836,482
2015-10-14 17:21:53.253992,482
2015-10-14 17:21:53.260249,485
2015-10-14 17:21:53.266050,484
2015-10-14 17:21:53.271403,486
2015-10-14 17:21:53.277451,487
2015-10-14 17:21:53.283868,488
2015-10-14 17:21:53.289173,488
2015-10-14 17:21:53.295605,485
2015-10-14 17:21:53.301007,486
2015-10-14 17:21:53.307476,493
2015-10-14 17:21:53.312660,492
2015-10-14 17:21:53.318717,481
2015-10-14 17:21:53.323853,477
2015-10-14 17:21:53.330302,492
2015-10-14 17:21:53.335734,502
2015-10-14 17:21:53.342302,494
2015-10-14 17:21:53.348685,489
2015-10-14 17:21:53.353894,492
2015-10-14 17:21:53.359680,493
2015-10-14 17:21:53.366100,489
2015-10-14 17:21:53.372549,496
2015-10-14 17:21:53.378974,500
2015-10-14 17:21:53.384926,499
2015-10-14 17:21:53.391368,501
2015-10-14 17:21:53.397794,505
2015-10-14 17:21:53.404221,506
2015-10-14 17:21:53.410661,498
2015-10-14 17:21:53.416983,497
2015-10-14 17:21:53.423491,509
2015-10-14 17:21:53.428745,514
2015-10-14 17:21:53.435157,505
2015-10-14 17:21:53.440434,496
2015-10-14 17:21:53.445867,504
2015-10-14 17:21:53.451807,522
2015-10-14 17:21:53.458218,532
2015-10-14 17:21:53.463570,532
2015-10-14 17:21:53.469990,528
2015-10-14 17:21:53.475130,517
2015-10-14 17:21:53.481605,510
2015-10-14 17:21:53.486857,511
2015-10-14 17:21:53.493268,509
2015-10-14 17:21:53.499712,505
2015-10-14 17:21:53.505239,505
2015-10-14 17:21:53.511729,508
2015-10-14 17:21:53.518194,511
2015-10-14 17:21:53.524644,501
2015-10-14 17:21:53.531084,495
2015-10-14 17:21:53.537514,500
2015-10-14 17:21:53.543971,503
2015-10-14 17:21:53.549994,502
2015-10-14 17:21:53.556280,507
2015-10-14 17:21:53.562750,505
2015-10-14 17:21:53.567920,518
2015-10-14 17:21:53.574417,574
2015-10-14 17:21:53.579683,684
2015-10-14 17:21:53.586108,831
2015-10-14 17:21:53.592263,977
2015-10-14 17:21:53.598685,995
2015-10-14 17:21:53.605051,991
2015-10-14 17:21:53.611537,841
2015-10-14 17:21:53.617246,489
2015-10-14 17:21:53.623676,323
2015-10-14 17:21:53.630116,373
2015-10-14 17:21:53.636556,446
2015-10-14 17:21:53.643028,481
2015-10-14 17:21:53.649095,492
2015-10-14 17:21:53.654577,492
2015-10-14 17:21:53.660709,483
2015-10-14 17:21:53.667232,474
2015-10-14 17:21:53.672406,472
2015-10-14 17:21:53.678883,478
2015-10-14 17:21:53.684261,482
2015-10-14 17:21:53.690673,481
2015-10-14 17:21:53.695867,481
2015-10-14 17:21:53.702292,487
2015-10-14 17:21:53.708720,491
2015-10-14 17:21:53.714041,488
2015-10-14 17:21:53.719160,489
2015-10-14 17:21:53.725612,500
2015-10-14 17:21:53.732098,509
2015-10-14 17:21:53.738376,504
2015-10-14 17:21:53.744143,501
2015-10-14 17:21:53.749270,515
2015-10-14 17:21:53.754422,534
2015-10-14 17:21:53.760396,533
2015-10-14 17:21:53.766816,535
2015-10-14 17:21:53.772198,544
2015-10-14 17:21:53.777545,552
2015-10-14 17:21:53.782640,559
2015-10-14 17:21:53.788509,571
2015-10-14 17:21:53.794669,584
2015-10-14 17:21:53.800130,592
2015-10-14 17:21:53.805805,602
2015-10-14 17:21:53.811729,612
2015-10-14 17:21:53.818251,627
2015-10-14 17:21:53.823490,642
2015-10-14 17:21:53.829919,647
2015-10-14 17:21:53.835101,650
2015-10-14 17:21:53.841562,650
2015-10-14 17:21:53.847034,642
2015-10-14 17:21:53.852255,648
2015-10-14 17:21:53.858156,657
2015-10-14 17:21:53.863782,646
2015-10-14 17:21:53.869921,627
2015-10-14 17:21:53.875043,609
2015-10-14 17:21:53.880308,591
2015-10-14 17:21:53.886751,568
2015-10-14 17:21:53.893002,540
2015-10-14 17:21:53.899537,516
2015-10-14 17:21:53.904682,498
2015-10-14 17:21:53.911103,483
2015-10-14 17:21:53.916440,464
2015-10-14 17:21:53.921582,448
2015-10-14 17:21:53.927997,441
2015-10-14 17:21:53.934408,432
2015-10-14 17:21:53.939670,425
2015-10-14 17:21:53.945737,429
2015-10-14 17:21:53.951061,431
2015-10-14 17:21:53.957546,422
2015-10-14 17:21:53.962921,420
2015-10-14 17:21:53.969345,430
2015-10-14 17:21:53.974622,436
2015-10-14 17:21:53.980119,437
2015-10-14 17:21:53.985638,431
2015-10-14 17:21:53.991017,430
2015-10-14 17:21:53.997287,434
2015-10-14 17:21:54.003726,432
2015-10-14 17:21:54.009061,430
2015-10-14 17:21:54.015549,438
2015-10-14 17:21:54.020764,448
2015-10-14 17:21:54.026385,444
2015-10-14 17:21:54.032349,443
2015-10-14 17:21:54.038821,449
2015-10-14 17:21:54.044772,457
2015-10-14 17:21:54.051204,460
2015-10-14 17:21:54.057559,461
2015-10-14 17:21:54.063979,462
2015-10-14 17:21:54.070436,457
2015-10-14 17:21:54.076807,456
2015-10-14 17:21:54.083238,468
2015-10-14 17:21:54.088723,473
2015-10-14 17:21:54.095211,470
2015-10-14 17:21:54.101503,470
2015-10-14 17:21:54.107917,471
2015-10-14 17:21:54.113627,473
2015-10-14 17:21:54.120085,476
2015-10-14 17:21:54.126496,479
2015-10-14 17:21:54.132910,480
2015-10-14 17:21:54.139346,481
2015-10-14 17:21:54.144494,478
2015-10-14 17:21:54.149687,478
2015-10-14 17:21:54.154805,484
2015-10-14 17:21:54.160305,482
2015-10-14 17:21:54.166561,477
2015-10-14 17:21:54.171857,476
2015-10-14 17:21:54.178277,479
2015-10-14 17:21:54.183526,481
2015-10-14 17:21:54.188807,488
2015-10-14 17:21:54.195049,491
2015-10-14 17:21:54.201417,489
2015-10-14 17:21:54.206674,485
2015-10-14 17:21:54.213093,479
2015-10-14 17:21:54.218290,483
2015-10-14 17:21:54.224340,497
2015-10-14 17:21:54.229648,494
2015-10-14 17:21:54.235259,490
2015-10-14 17:21:54.241339,495
2015-10-14 17:21:54.247044,494
2015-10-14 17:21:54.252822,491
2015-10-14 17:21:54.258797,494
2015-10-14 17:21:54.264505,504
2015-10-14 17:21:54.270998,512
2015-10-14 17:21:54.276170,506
2015-10-14 17:21:54.282694,502
2015-10-14 17:21:54.287995,508
2015-10-14 17:21:54.293492,513
2015-10-14 17:21:54.299314,508
2015-10-14 17:21:54.304707,505
2015-10-14 17:21:54.311067,517
2015-10-14 17:21:54.316298,520
2015-10-14 17:21:54.322489,512
2015-10-14 17:21:54.328806,515
2015-10-14 17:21:54.334088,517
2015-10-14 17:21:54.340495,510
2015-10-14 17:21:54.345731,514
2015-10-14 17:21:54.352188,526
2015-10-14 17:21:54.357334,530
2015-10-14 17:21:54.362448,524
2015-10-14 17:21:54.368857,527
2015-10-14 17:21:54.374783,541
2015-10-14 17:21:54.380565,538
2015-10-14 17:21:54.387032,519
2015-10-14 17:21:54.392256,504
2015-10-14 17:21:54.398660,501
2015-10-14 17:21:54.404893,507
2015-10-14 17:21:54.410253,512
2015-10-14 17:21:54.415398,512
2015-10-14 17:21:54.421874,506
2015-10-14 17:21:54.426989,500
2015-10-14 17:21:54.432227,505
2015-10-14 17:21:54.438700,513
2015-10-14 17:21:54.444123,514
2015-10-14 17:21:54.450336,515
2015-10-14 17:21:54.455703,524
2015-10-14 17:21:54.461853,530
2015-10-14 17:21:54.468402,549
2015-10-14 17:21:54.473806,600
2015-10-14 17:21:54.479422,678
2015-10-14 17:21:54.485152,805
2015-10-14 17:21:54.491672,942
2015-10-14 17:21:54.496966,982
2015-10-14 17:21:54.503399,952
2015-10-14 17:21:54.508945,767
2015-10-14 17:21:54.514919,456
2015-10-14 17:21:54.520182,332
2015-10-14 17:21:54.526436,386
2015-10-14 17:21:54.531782,447
2015-10-14 17:21:54.538230,484
2015-10-14 17:21:54.543431,508
2015-10-14 17:21:54.548703,524
2015-10-14 17:21:54.554847,521
2015-10-14 17:21:54.560338,508
2015-10-14 17:21:54.566411,505
2015-10-14 17:21:54.572447,515
2015-10-14 17:21:54.578029,521
2015-10-14 17:21:54.584629,517
2015-10-14 17:21:54.591035,514
2015-10-14 17:21:54.597261,519
2015-10-14 17:21:54.603689,530
2015-10-14 17:21:54.609043,533
2015-10-14 17:21:54.615491,530
2015-10-14 17:21:54.620945,531
2015-10-14 17:21:54.627367,539
2015-10-14 17:21:54.633839,543
2015-10-14 17:21:54.639066,550
2015-10-14 17:21:54.644468,557
2015-10-14 17:21:54.649619,561
2015-10-14 17:21:54.655392,564
2015-10-14 17:21:54.661275,563
2015-10-14 17:21:54.667696,570
2015-10-14 17:21:54.672970,592
2015-10-14 17:21:54.678328,602
2015-10-14 17:21:54.684753,601
2015-10-14 17:21:54.691175,610
2015-10-14 17:21:54.696447,625
2015-10-14 17:21:54.701994,635
2015-10-14 17:21:54.707161,642
2015-10-14 17:21:54.712874,653
2015-10-14 17:21:54.718450,669
2015-10-14 17:21:54.724867,673
2015-10-14 17:21:54.730099,671
2015-10-14 17:21:54.736547,670
2015-10-14 17:21:54.742915,665
2015-10-14 17:21:54.748059,662
2015-10-14 17:21:54.753151,667
2015-10-14 17:21:54.759597,664
2015-10-14 17:21:54.765001,645
2015-10-14 17:21:54.771412,621
2015-10-14 17:21:54.777049,598
2015-10-14 17:21:54.782174,574
2015-10-14 17:21:54.788548,546
2015-10-14 17:21:54.794921,517
2015-10-14 17:21:54.801339,498
2015-10-14 17:21:54.807493,482
2015-10-14 17:21:54.812961,461
2015-10-14 17:21:54.818239,452
2015-10-14 17:21:54.823420,456
2015-10-14 17:21:54.829835,452
2015-10-14 17:21:54.836262,442
2015-10-14 17:21:54.842788,433
2015-10-14 17:21:54.848770,437
2015-10-14 17:21:54.855106,441
2015-10-14 17:21:54.861470,435
2015-10-14 17:21:54.867892,427
2015-10-14 17:21:54.873029,430
2015-10-14 17:21:54.879440,439
2015-10-14 17:21:54.885916,437
2015-10-14 17:21:54.891434,431
2015-10-14 17:21:54.897913,438
2015-10-14 17:21:54.903111,443
2015-10-14 17:21:54.909588,443
2015-10-14 17:21:54.914783,449
2015-10-14 17:21:54.921174,449
2015-10-14 17:21:54.926249,443
2015-10-14 17:21:54.932586,441
2015-10-14 17:21:54.937862,448
2015-10-14 17:21:54.944326,458
2015-10-14 17:21:54.949566,461
2015-10-14 17:21:54.955049,457
2015-10-14 17:21:54.961069,456
2015-10-14 17:21:54.967178,465
2015-10-14 17:21:54.973236,463
2015-10-14 17:21:54.979596,464
2015-10-14 17:21:54.986016,472
2015-10-14 17:21:54.992447,472
2015-10-14 17:21:54.998403,471
2015-10-14 17:21:55.004605,476
2015-10-14 17:21:55.010957,478
2015-10-14 17:21:55.016067,470
2015-10-14 17:21:55.021963,460
2015-10-14 17:21:55.028329,461
2015-10-14 17:21:55.034699,472
2015-10-14 17:21:55.041026,481
2015-10-14 17:21:55.047219,476
2015-10-14 17:21:55.052309,471
2015-10-14 17:21:55.057558,477
2015-10-14 17:21:55.063851,479
2015-10-14 17:21:55.070183,468
2015-10-14 17:21:55.076465,472
2015-10-14 17:21:55.081905,479
2015-10-14 17:21:55.088305,472
2015-10-14 17:21:55.094342,471
2015-10-14 17:21:55.100494,478
2015-10-14 17:21:55.106969,476
2015-10-14 17:21:55.112128,468
2015-10-14 17:21:55.118645,469
2015-10-14 17:21:55.123880,482
