611.29381233576896,609.40592704594314,602.77385578447229,605.67163326333741,602.54971191643051,604.95523529646198,611.15511162752887,618.58902401567821,619.7698025243194,627.71206181698233,632.46304940861728,642.64674738170186,658.04830305388191,664.90451818339761,666.93110418146432,664.45623044731383,665.28345556536033,670.94030981485366,678.42499018574188,687.61737834116798,698.8109685032889,698.65617498937104,698.55214945818807,702.31182723216364,707.64980326812224,709.9952674797247,713.34133269467566,714.68619590292769,719.08363010396988,730.49207294844359,740.62500293878816,744.54876541237456,747.47192688261066,749.82668227990325,746.6100265875034,745.29054737062108,745.8174766465138,733.74589338360261,709.95379068267584,697.59551481758865,694.03459692028696,687.43720083587516,686.11772161899398,687.36785048175523,690.44580546591521,695.38559467144353,839.70588379909873,1174.7550468217191,1346.5227813014308,938.84669297893402,512.17376550141307,583.60515364121147,670.16385267954115,675.80461412335853,673.47524271743805,684.80504402210272,709.32963749558814,731.03509503001919,745.08249630825924,756.1027105850842,775.31471201397881,797.20963823939292,815.52506419612223,836.71288364034854,853.49397769784287,866.24728375057271,886.31438385458591,894.79966522882648,905.39017414094178,900.42433386695598,883.11880009926404,849.00678828270793,795.76821819705606,729.04816334041061,685.62115546586733,645.13340186724429,623.46261950987309,608.50006038808465,605.90506831707035,597.35043658871086,591.7536415076504,591.55488163097755,594.60745262376656,599.98010383678411,597.82410831616744,602.2908928713257,603.16208435212616,604.28280369233539,607.52484337610633,615.20828362366638,620.15803109197327,626.33252343166919,628.51390294366081,635.84378980062718,639.92234578813657,648.73579656159598,649.66704721082635,653.04778760283614,650.21936047809095,647.90857144354936,643.65663957074014,646.39033234999533,647.87389626648849,644.2690120064367,647.19217347667188,649.0825483321978,627.73064418836429,619.22678044274483,624.9090186836072,635.67041391532723,651.68434202320395,660.52317678803638,669.4567458983596,680.67572005185252,688.39383547647549,695.3354937657881,700.96696402391046,702.26105924942067,693.63027554695225,674.51981008353744,672.51860807683772,676.08881715983046,677.52841471357442,685.91896174232011,689.19567660315397,699.32860659349251
524.03978726764456,592.16725406667319,593.93502101963998,610.06906746437858,673.26039003508424
524.03978726764456,592.16725406667319,593.93502101963998,611.48328102675282,674.09690633882167
524.03978726764456,592.16725406667319,593.93502101963998,612.50926602147206,674.57986925196633
524.03978726764456,592.16725406667319,593.93502101963998,615.24295880072634,674.45045972941546
524.03978726764456,592.16725406667319,593.93502101963998,617.39895432134699,674.54519407490636
524.03978726764456,592.16725406667319,593.93502101963998,618.10606110253354,675.60585424668568
524.03978726764456,592.16725406667319,593.93502101963998,618.94257740627097,676.92533346356788
524.03978726764456,592.16725406667319,593.93502101963998,619.42554031941563,677.27888685416167
524.03978726764456,592.16725406667319,593.93502101963998,619.29613079686476,677.50303072220356
524.03978726764456,590.6236309817491,593.3573237610043,619.29613079686476,677.50303072220356
506.20732422405797,589.69238033252066,592.16725406667319,619.29613079686476,677.50303072220356
506.20732422405797,575.10875859268913,590.6236309817491,619.29613079686476,677.50303072220356
506.20732422405797,575.10875859268913,590.6236309817491,619.29613079686476,677.50303072220356
506.20732422405797,575.10875859268913,590.6236309817491,619.52027466490665,677.50303072220356
506.20732422405797,575.10875859268913,590.6236309817491,620.35679096864408,678.33954702594099
506.20732422405797,575.10875859268913,590.6236309817491,620.2273814460932,678.82250993908565
506.20732422405797,575.10875859268913,590.6236309817491,620.2273814460932,678.69310041653478
506.20732422405797,575.10875859268913,590.6236309817491,620.2273814460932,678.91724428457655
506.20732422405797,575.10875859268913,590.6236309817491,620.2273814460932,679.62435106576322
506.20732422405797,575.10875859268913,590.6236309817491,620.2273814460932,680.33145784694977
506.20732422405797,575.10875859268913,590.6236309817491,620.2273814460932,680.77974558303436
506.20732422405797,575.10875859268913,590.6236309817491,620.2273814460932,681.93514010030458
506.20732422405797,575.10875859268913,590.6236309817491,620.2273814460932,684.44468901151708
506.20732422405797,575.10875859268913,590.6236309817491,620.2273814460932,685.76416822840019
506.20732422405797,575.10875859268913,590.6236309817491,620.2273814460932,685.98831209644209
506.20732422405797,575.10875859268913,590.6236309817491,620.2273814460932,686.82482840017951
506.20732422405797,575.10875859268913,590.6236309817491,620.2273814460932,687.30779131332429
506.20732422405797,575.10875859268913,590.6236309817491,620.2273814460932,687.1783817907733
506.20732422405797,575.10875859268913,590.6236309817491,620.2273814460932,687.40252565881519
506.20732422405797,575.10875859268913,590.6236309817491,620.2273814460932,688.23904196255262
506.20732422405797,575.10875859268913,590.6236309817491,620.2273814460932,688.72200487569739
506.20732422405797,575.10875859268913,590.6236309817491,620.2273814460932,688.72200487569739
506.20732422405797,575.10875859268913,590.6236309817491,620.2273814460932,688.72200487569739
506.20732422405797,575.10875859268913,590.6236309817491,620.2273814460932,688.72200487569739
506.20732422405797,575.10875859268913,590.6236309817491,620.2273814460932,688.59259535314641
506.20732422405797,575.10875859268913,590.6236309817491,620.2273814460932,688.68732969863731
506.20732422405797,575.10875859268913,590.6236309817491,620.2273814460932,689.74798987041675
506.20732422405797,575.10875859268913,590.6236309817491,620.2273814460932,690.93805956474796
506.20732422405797,575.10875859268913,590.6236309817491,620.2273814460932,690.93805956474796
506.20732422405797,575.10875859268913,590.6236309817491,620.2273814460932,690.93805956474796
506.20732422405797,575.10875859268913,590.6236309817491,620.2273814460932,690.93805956474796
506.20732422405797,575.10875859268913,590.6236309817491,620.2273814460932,690.93805956474796
506.20732422405797,575.10875859268913,590.6236309817491,620.2273814460932,690.93805956474796
506.20732422405797,575.10875859268913,590.6236309817491,620.2273814460932,690.93805956474796
506.20732422405797,575.10875859268913,590.6236309817491,620.2273814460932,690.93805956474796
506.20732422405797,575.10875859268913,590.6236309817491,620.2273814460932,690.93805956474796
506.20732422405797,575.10875859268913,590.6236309817491,620.2273814460932,690.93805956474796
506.20732422405797,575.10875859268913,590.6236309817491,620.2273814460932,690.93805956474796
506.20732422405797,575.10875859268913,590.6236309817491,620.2273814460932,690.93805956474796
506.20732422405797,575.10875859268913,590.6236309817491,620.2273814460932,690.93805956474796
506.20732422405797,575.10875859268913,590.6236309817491,620.2273814460932,690.93805956474796
506.20732422405797,575.10875859268913,590.6236309817491,620.2273814460932,690.93805956474796
506.20732422405797,575.10875859268913,590.6236309817491,620.2273814460932,690.93805956474796
506.20732422405797,575.10875859268913,590.6236309817491,620.2273814460932,690.93805956474796
506.20732422405797,575.10875859268913,590.6236309817491,620.2273814460932,690.93805956474796
506.20732422405797,575.10875859268913,590.6236309817491,620.2273814460932,690.93805956474796
506.20732422405797,575.10875859268913,590.6236309817491,620.2273814460932,690.93805956474796
506.20732422405797,575.10875859268913,590.6236309817491,620.2273814460932,690.93805956474796
506.20732422405797,575.10875859268913,590.6236309817491,620.2273814460932,690.93805956474796
506.20732422405797,575.10875859268913,590.6236309817491,620.2273814460932,690.93805956474796
506.20732422405797,575.10875859268913,590.6236309817491,620.2273814460932,690.93805956474796
506.20732422405797,575.10875859268913,590.6236309817491,620.2273814460932,689.74798987041675
506.20732422405797,575.10875859268913,590.6236309817491,620.2273814460932,688.68732969863731
506.20732422405797,575.10875859268913,590.6236309817491,620.2273814460932,688.59259535314641
506.20732422405797,575.10875859268913,590.6236309817491,620.2273814460932,688.72200487569739
506.20732422405797,575.10875859268913,590.6236309817491,620.2273814460932,688.72200487569739
506.20732422405797,575.10875859268913,590.6236309817491,620.2273814460932,688.72200487569739
506.20732422405797,575.10875859268913,590.6236309817491,620.2273814460932,688.23904196255262
506.20732422405797,575.10875859268913,590.6236309817491,620.2273814460932,687.40252565881519
506.20732422405797,575.10875859268913,590.6236309817491,620.2273814460932,687.1783817907733
506.20732422405797,575.10875859268913,590.6236309817491,620.2273814460932,687.30779131332429
506.20732422405797,575.10875859268913,590.6236309817491,620.2273814460932,686.82482840017951
506.20732422405797,575.10875859268913,590.6236309817491,620.2273814460932,685.98831209644209
506.20732422405797,575.10875859268913,590.6236309817491,620.2273814460932,684.3152794889661
506.20732422405797,575.10875859268913,590.6236309817491,620.2273814460932,681.93514010030458
506.20732422405797,575.10875859268913,590.6236309817491,620.2273814460932,680.77974558303436
506.20732422405797,575.10875859268913,590.6236309817491,620.2273814460932,679.84849493380511
506.20732422405797,575.10875859268913,590.6236309817491,620.2273814460932,678.78783476202568
506.20732422405797,575.10875859268913,590.6236309817491,620.2273814460932,678.69310041653478
506.20732422405797,575.10875859268913,590.6236309817491,620.2273814460932,678.82250993908565
506.20732422405797,575.10875859268913,590.6236309817491,620.2273814460932,678.33954702594099
506.20732422405797,575.10875859268913,590.6236309817491,620.2273814460932,677.50303072220356
506.20732422405797,575.10875859268913,590.6236309817491,620.2273814460932,677.27888685416167
506.20732422405797,575.10875859268913,590.6236309817491,620.2273814460932,676.92533346356788
506.20732422405797,575.10875859268913,590.6236309817491,620.2273814460932,676.08881715983034
506.20732422405797,575.10875859268913,590.6236309817491,620.2273814460932,676.08881715983034
506.20732422405797,575.10875859268913,590.6236309817491,620.2273814460932,676.08881715983034
506.20732422405797,575.10875859268913,590.6236309817491,620.2273814460932,676.08881715983034
506.20732422405797,575.10875859268913,590.6236309817491,620.2273814460932,676.08881715983034
506.20732422405797,575.10875859268913,590.6236309817491,620.2273814460932,676.08881715983034
506.20732422405797,575.10875859268913,590.6236309817491,620.2273814460932,676.08881715983034
506.20732422405797,575.10875859268913,590.6236309817491,620.2273814460932,676.08881715983034
506.20732422405797,575.10875859268913,590.6236309817491,620.2273814460932,676.08881715983034
506.20732422405797,575.10875859268913,590.6236309817491,620.2273814460932,676.08881715983034
506.20732422405797,575.10875859268913,590.6236309817491,620.2273814460932,676.08881715983034
506.20732422405797,575.10875859268913,590.6236309817491,620.2273814460932,676.08881715983034
506.20732422405797,575.10875859268913,590.6236309817491,620.2273814460932,676.08881715983034
506.20732422405797,575.10875859268913,590.6236309817491,620.2273814460932,676.08881715983034
505.94850517895611,589.69238033252066,592.16725406667319,620.80507870472888,676.92533346356788
526.90288956945176,590.6236309817491,593.3573237610043,621.86573887650809,677.27888685416167
536.13675452191978,592.16725406667319,593.93502101963998,622.92639904828843,677.50303072220356
536.13675452191978,592.16725406667319,593.93502101963998,623.72824017496589,678.33954702594099
536.13675452191978,592.16725406667319,593.93502101963998,623.72824017496589,678.82250993908565
536.13675452191978,592.16725406667319,593.93502101963998,623.72824017496589,678.82250993908565
536.13675452191978,592.16725406667319,593.93502101963998,623.72824017496589,678.82250993908565
536.13675452191978,592.16725406667319,593.93502101963998,623.72824017496589,678.69310041653478
536.13675452191978,592.16725406667319,593.93502101963998,623.72824017496589,678.91724428457655
536.13675452191978,592.16725406667319,593.93502101963998,623.72824017496589,679.62435106576322
536.13675452191978,592.16725406667319,593.93502101963998,623.72824017496589,680.33145784694977
536.13675452191978,592.16725406667319,593.93502101963998,623.72824017496589,680.33145784694977
536.13675452191978,592.16725406667319,593.93502101963998,623.72824017496589,680.33145784694977
536.13675452191978,592.16725406667319,593.93502101963998,623.72824017496589,680.33145784694977
536.13675452191978,592.16725406667319,593.93502101963998,623.72824017496589,680.33145784694977
536.13675452191978,592.16725406667319,593.93502101963998,623.72824017496589,680.33145784694977
536.13675452191978,592.16725406667319,593.93502101963998,623.72824017496589,680.33145784694977
536.13675452191978,592.16725406667319,593.93502101963998,623.72824017496589,680.33145784694977
536.13675452191978,592.16725406667319,593.93502101963998,623.72824017496589,680.33145784694977
536.13675452191978,592.16725406667319,593.93502101963998,623.72824017496589,680.33145784694977
536.13675452191978,592.16725406667319,593.93502101963998,623.72824017496589,680.33145784694977
536.13675452191978,592.16725406667319,593.93502101963998,623.72824017496589,680.33145784694977
536.13675452191978,592.16725406667319,593.93502101963998,623.72824017496589,680.33145784694977
536.13675452191978,592.16725406667319,593.93502101963998,623.72824017496589,680.33145784694977
536.13675452191978,592.16725406667319,593.93502101963998,623.72824017496589,680.33145784694977
536.13675452191978,592.16725406667319,593.93502101963998,623.72824017496589,680.33145784694977
536.13675452191978,592.16725406667319,593.93502101963998,623.72824017496589,680.33145784694977
536.13675452191978,592.16725406667319,593.93502101963998,623.72824017496589,680.33145784694977
536.13675452191978,592.16725406667319,593.93502101963998,623.72824017496589,680.33145784694977
536.13675452191978,592.16725406667319,593.93502101963998,623.72824017496589,680.33145784694977
536.13675452191978,592.16725406667319,593.93502101963998,623.72824017496589,680.33145784694977
536.13675452191978,592.16725406667319,593.93502101963998,623.72824017496589,680.33145784694977
536.13675452191978,592.16725406667319,593.93502101963998,623.72824017496589,680.33145784694977
536.13675452191978,592.16725406667319,593.93502101963998,623.72824017496589,680.33145784694977
536.13675452191978,592.16725406667319,593.93502101963998,623.72824017496589,680.33145784694977
536.13675452191978,592.16725406667319,593.93502101963998,623.72824017496589,680.33145784694977
536.13675452191978,592.16725406667319,593.93502101963998,623.72824017496589,680.33145784694977
536.13675452191978,592.16725406667319,593.93502101963998,623.72824017496589,680.33145784694977
536.13675452191978,592.16725406667319,593.93502101963998,623.72824017496589,680.33145784694977
536.13675452191978,592.16725406667319,593.93502101963998,623.72824017496589,680.33145784694977
536.13675452191978,592.16725406667319,593.93502101963998,623.72824017496589,680.33145784694977
536.13675452191978,592.16725406667319,593.93502101963998,623.72824017496589,680.33145784694977
536.13675452191978,592.16725406667319,593.93502101963998,623.72824017496589,680.33145784694977
536.13675452191978,592.16725406667319,593.93502101963998,623.72824017496589,680.33145784694977
536.13675452191978,592.16725406667319,593.93502101963998,623.72824017496589,680.33145784694977
536.13675452191978,592.16725406667319,593.93502101963998,623.72824017496589,680.33145784694977
536.13675452191978,592.16725406667319,593.93502101963998,623.72824017496589,680.33145784694977
536.13675452191978,592.16725406667319,593.93502101963998,623.72824017496589,680.33145784694977
536.13675452191978,592.16725406667319,593.93502101963998,623.72824017496589,680.33145784694977
536.13675452191978,592.16725406667319,593.93502101963998,623.72824017496589,681.03856462813621
536.13675452191978,592.16725406667319,593.93502101963998,623.72824017496589,681.74567140932277
536.13675452191978,592.16725406667319,593.93502101963998,623.72824017496589,682.58218771306019
536.13675452191978,592.16725406667319,593.93502101963998,623.72824017496589,682.93574110365398
536.13675452191978,592.16725406667319,593.93502101963998,625.62541665048275,683.15988497169587
536.13675452191978,592.16725406667319,593.93502101963998,627.29844925795862,683.86699175288243
536.13675452191978,592.16725406667319,593.93502101963998,627.74673699404332,684.57409853406898
536.13675452191978,592.16725406667319,593.93502101963998,629.03154103386453,685.28120531525553
536.13675452191978,592.16725406667319,593.93502101963998,631.05812703193328,685.85890257389121
536.13675452191978,592.16725406667319,593.93502101963998,631.98937768116264,686.91956274567042
536.13675452191978,592.16725406667319,593.93502101963998,633.27418172098385,688.23904196255262
536.13675452191978,592.03784454412221,594.99568119141929,635.30076771905249,688.59259535314641
536.13675452191978,593.45205810649531,596.18575088575051,636.4908374133837,688.68732969863731
535.87793547681804,594.99568119141929,596.76344814438619,637.32735371712124,689.74798987041675
535.74852595426705,596.18575088575051,597.69469879361463,637.8103166302659,690.93805956474796
535.61911643171618,596.76344814438619,599.23832187853861,637.68090710771503,691.64516634593451
532.3263087652083,596.76344814438619,599.23832187853861,637.68090710771503,691.64516634593451
531.61240036402978,594.34863357866277,599.23832187853861,637.68090710771503,691.64516634593451
531.61240036402978,591.74435032195936,597.69469879361463,637.68090710771503,691.64516634593451
531.61240036402978,591.74435032195936,597.56528927106365,637.90505097575692,691.64516634593451
531.61240036402978,591.83908466745038,599.33305622402952,638.74156727949435,691.64516634593451
531.61240036402978,591.80440949039041,601.35964222209827,639.22453019263901,692.35227312712095
531.61240036402978,591.80440949039041,601.23023269954729,639.22453019263901,693.05937990830762
531.61240036402978,591.80440949039041,601.23023269954729,639.09512067008814,693.63707716694319
531.61240036402978,591.80440949039041,601.54911091308009,639.31926453812991,694.56832781617163
531.61240036402978,591.54559044528855,603.31687786604596,640.02637131931647,696.11195090109561
531.61240036402978,591.41618092273757,603.98930947017254,640.73347810050302,697.17261107287595
531.61240036402978,591.28677140018669,605.1100288103828,641.44058488168957,698.23327124465516
531.61240036402978,590.89854283253396,608.03319028061901,642.14769166287613,699.55275046153747
531.61240036402978,590.51031426488112,610.99102692791507,642.98420796661355,699.90630385213115
531.61240036402978,590.25149521977926,612.66405953538992,643.46717087975821,700.13044772017304
531.61240036402978,590.25149521977926,612.53465001283917,643.33776135720746,700.96696402391046
531.61240036402978,590.25149521977926,612.40524049028818,643.56190522524923,701.44992693705512
531.61240036402978,590.25149521977926,612.40524049028818,644.39842152898677,701.44992693705512
531.61240036402978,590.25149521977926,612.40524049028818,644.88138444213143,701.44992693705512
531.61240036402978,590.25149521977926,612.40524049028818,644.75197491958045,701.32051741450425
531.61240036402978,590.25149521977926,612.40524049028818,644.97611878762234,701.54466128254614
531.61240036402978,590.25149521977926,612.40524049028818,645.81263509135977,702.38117758628357
531.61240036402978,590.25149521977926,612.40524049028818,646.29559800450443,702.86414049942823
531.61240036402978,590.25149521977926,612.40524049028818,646.29559800450443,702.60532145432649
531.61240036402978,590.25149521977926,612.40524049028818,646.29559800450443,703.05360919041027
531.61240036402978,590.25149521977926,612.40524049028818,646.16618848195355,704.72664179788512
531.61240036402978,590.25149521977926,612.40524049028818,646.16618848195355,705.56315810162357
531.61240036402978,590.25149521977926,612.40524049028818,646.16618848195355,705.78730196966535
531.61240036402978,590.25149521977926,612.40524049028818,646.16618848195355,706.62381827340289
531.61240036402978,590.25149521977926,612.40524049028818,646.16618848195355,707.10678118654755
531.61240036402978,590.25149521977926,612.40524049028818,646.16618848195355,706.97737166399668
531.61240036402978,590.25149521977926,612.40524049028818,646.16618848195355,707.20151553203857
531.61240036402978,590.25149521977926,612.40524049028818,646.16618848195355,708.038031835776
531.61240036402978,590.25149521977926,612.40524049028818,646.16618848195355,708.52099474892066
531.61240036402978,590.25149521977926,612.40524049028818,646.16618848195355,708.39158522636978
531.61240036402978,590.25149521977926,612.40524049028818,646.39033234999533,708.4863195718608
531.61240036402978,590.25149521977926,612.40524049028818,647.22684865373287,709.54697974364001
531.61240036402978,590.25149521977926,612.40524049028818,647.70981156687753,710.73704943797122
531.61240036402978,590.25149521977926,612.40524049028818,647.58040204432666,711.44415621915778
531.61240036402978,590.25149521977926,612.40524049028818,647.67513638981757,712.2806725228952
531.61240036402978,590.25149521977926,612.40524049028818,648.73579656159689,712.63422591348899
531.61240036402978,590.25149521977926,612.40524049028818,649.66704721082624,712.72896025898001
531.61240036402978,590.25149521977926,612.40524049028818,650.82244172809658,713.78962043075933
531.61240036402978,590.25149521977926,612.40524049028818,653.07317159420711,714.97969012509043
531.61240036402978,590.25149521977926,612.40524049028818,654.97034806972488,715.6867969062771
531.61240036402978,590.25149521977926,612.40524049028818,656.64338067719984,716.39390368746365
531.61240036402978,590.25149521977926,612.40524049028818,657.35048745838731,717.1010104686502
531.61240036402978,590.25149521977926,612.40524049028818,657.79877519447109,717.80811724983676
531.61240036402978,590.25149521977926,612.40524049028818,659.34239827939518,717.80811724983676
531.61240036402978,590.25149521977926,612.46529965871912,660.14423940607367,717.80811724983676
531.61240036402978,589.99267617467751,614.29312578011593,661.20489957785298,717.80811724983676
531.61240036402978,589.60444760702467,617.5698406409449,661.20489957785298,717.80811724983676
531.61240036402978,589.08680951682106,620.88123067883475,661.20489957785298,717.80811724983676
531.61240036402978,589.73385712957565,616.6986491601474,661.20489957785298,717.80811724983676
531.61240036402978,590.51031426488112,610.59350717457323,661.20489957785298,717.80811724983676
531.61240036402978,590.89854283253396,607.51555219041529,661.20489957785298,717.80811724983676
531.61240036402978,591.02795235508484,606.78306141785765,661.20489957785298,717.80811724983676
531.61240036402978,591.67499996783943,602.76456459878136,661.20489957785298,717.80811724983676
531.61240036402978,592.06322853549216,599.2637058699105,660.36838327411544,717.80811724983676
531.61240036402978,591.83908466745038,598.75535896539486,659.2129887568442,717.80811724983676
531.61240036402978,591.29606258587569,596.85818248987607,657.79877519447109,717.80811724983676
531.61240036402978,590.6236309817491,593.64152679747713,656.38456163209798,717.80811724983676
531.61240036402978,590.5288966362582,591.77902549902046,654.00442224343556,717.80811724983676
531.61240036402978,589.82178985507164,591.10659389489388,651.40013898673214,717.80811724983676
531.61240036402978,589.59764598702975,590.5288966362582,649.89119107886813,717.80811724983676
531.61240036402978,589.59764598702975,590.5288966362582,648.12342412590124,717.80811724983676
531.61240036402978,589.59764598702975,590.5288966362582,646.35565717293548,717.80811724983676
531.61240036402978,589.59764598702975,590.5288966362582,645.55381604625791,717.80811724983676
531.61240036402978,589.59764598702975,590.5288966362582,644.97611878762234,717.80811724983676
531.61240036402978,589.59764598702975,590.5288966362582,644.26901200643579,717.80811724983676
531.61240036402978,589.59764598702975,590.5288966362582,643.07894231210457,717.80811724983676
531.61240036402978,589.59764598702975,590.5288966362582,642.01828214032514,717.80811724983676
531.61240036402978,589.59764598702975,590.5288966362582,641.44058488168957,717.80811724983676
531.61240036402978,589.59764598702975,590.5288966362582,640.25051518735836,717.80811724983676
531.61240036402978,589.59764598702975,590.5288966362582,639.18985501557904,717.80811724983676
531.61240036402978,589.59764598702975,590.5288966362582,639.09512067008814,717.80811724983676
531.61240036402978,589.59764598702975,590.5288966362582,639.22453019263901,717.80811724983676
531.61240036402978,589.59764598702975,590.5288966362582,639.22453019263901,717.80811724983676
531.61240036402978,589.59764598702975,590.5288966362582,639.22453019263901,717.80811724983676
531.61240036402978,589.59764598702975,590.5288966362582,638.74156727949435,717.80811724983676
531.61240036402978,589.59764598702975,590.5288966362582,638.74156727949435,717.80811724983676
531.61240036402978,589.59764598702975,590.5288966362582,638.74156727949435,717.80811724983676
531.61240036402978,589.59764598702975,590.5288966362582,638.74156727949435,717.80811724983676
531.61240036402978,589.59764598702975,590.5288966362582,638.74156727949435,717.80811724983676
531.61240036402978,589.59764598702975,590.5288966362582,638.74156727949435,717.80811724983676
531.61240036402978,589.59764598702975,590.5288966362582,638.74156727949435,717.80811724983676
531.61240036402978,589.59764598702975,590.5288966362582,638.74156727949435,717.80811724983676
531.61240036402978,589.59764598702975,590.5288966362582,638.74156727949435,717.80811724983676
531.61240036402978,589.59764598702975,590.5288966362582,638.74156727949435,717.1010104686502
531.61240036402978,589.59764598702975,590.5288966362582,638.74156727949435,716.39390368746365
531.61240036402978,589.59764598702975,590.5288966362582,638.74156727949435,715.6867969062771
531.61240036402978,589.59764598702975,590.5288966362582,638.74156727949435,714.97969012509043
531.61240036402978,589.59764598702975,590.5288966362582,638.74156727949435,713.78962043075933
531.61240036402978,589.59764598702975,590.5288966362582,638.74156727949435,712.72896025898001
531.61240036402978,589.59764598702975,590.5288966362582,638.74156727949435,712.15126300034433
531.61240036402978,589.59764598702975,590.5288966362582,638.74156727949435,711.44415621915778
531.61240036402978,589.82178985507164,591.10659389489388,639.22453019263901,711.44415621915778
546.33223324640426,590.5288966362582,591.77902549902046,639.22453019263901,711.44415621915778
561.01739095170296,591.10659389489388,593.77093632002811,639.22453019263901,711.44415621915778
561.01739095170296,591.10659389489388,593.77093632002811,639.09512067008814,711.44415621915778
561.01739095170296,591.10659389489388,593.77093632002811,639.09512067008814,711.44415621915778
561.01739095170296,591.10659389489388,593.77093632002811,639.09512067008814,711.44415621915778
561.01739095170296,591.10659389489388,593.77093632002811,639.09512067008814,711.44415621915778
561.01739095170296,591.10659389489388,593.77093632002811,639.09512067008814,711.44415621915778
561.01739095170296,591.10659389489388,593.77093632002811,639.09512067008814,711.44415621915778
561.01739095170296,591.10659389489388,593.77093632002811,639.09512067008814,711.44415621915778
561.01739095170296,591.10659389489388,593.77093632002811,639.09512067008814,710.73704943797122
561.01739095170296,591.10659389489388,593.77093632002811,639.09512067008814,709.54697974364001
561.01739095170296,591.10659389489388,593.77093632002811,639.09512067008814,708.4863195718608
561.01739095170296,591.10659389489388,593.77093632002811,639.09512067008814,708.39158522636978
561.01739095170296,591.10659389489388,593.77093632002811,639.09512067008814,708.52099474892066
561.01739095170296,591.10659389489388,593.77093632002811,639.09512067008814,708.038031835776
561.01739095170296,591.10659389489388,593.77093632002811,639.09512067008814,707.20151553203857
561.01739095170296,591.10659389489388,593.77093632002811,639.09512067008814,706.97737166399668
561.01739095170296,591.10659389489388,593.77093632002811,639.09512067008814,706.62381827340289
561.01739095170296,591.10659389489388,593.77093632002811,639.09512067008814,705.78730196966535
561.01739095170296,591.10659389489388,593.77093632002811,639.09512067008814,704.59723227533414
561.01739095170296,591.10659389489388,593.77093632002811,639.09512067008814,703.05360919041027
561.01739095170296,591.10659389489388,593.77093632002811,639.09512067008814,702.60532145432649
561.01739095170296,591.10659389489388,593.77093632002811,639.09512067008814,702.38117758628357
561.01739095170296,591.10659389489388,593.77093632002811,639.09512067008814,701.54466128254614
561.01739095170296,591.10659389489388,593.77093632002811,639.09512067008814,700.83755450135959
561.01739095170296,591.10659389489388,593.77093632002811,639.22453019263901,699.64748480702838
561.01739095170296,591.10659389489388,593.77093632002811,639.22453019263901,698.10386172210428
561.01739095170296,591.10659389489388,593.77093632002811,639.22453019263901,696.20668524658652
561.01739095170296,591.10659389489388,593.77093632002811,639.22453019263901,693.95595538047598
561.01739095170296,591.10659389489388,593.77093632002811,639.22453019263901,691.35167212377166
561.01739095170296,591.10659389489388,593.77093632002811,639.22453019263901,688.87679838961924
561.01739095170296,591.10659389489388,593.77093632002811,639.22453019263901,687.85081339489989
561.01739095170296,591.10659389489388,593.77093632002811,639.22453019263901,687.40252565881519
561.01739095170296,591.10659389489388,593.77093632002811,639.22453019263901,687.1783817907733
561.01739095170296,591.10659389489388,593.77093632002811,639.22453019263901,686.82482840017951
561.01739095170296,591.10659389489388,593.77093632002811,639.22453019263901,685.98831209644209
561.01739095170296,591.10659389489388,593.77093632002811,639.22453019263901,685.76416822840019
561.01739095170296,591.10659389489388,593.77093632002811,639.22453019263901,685.76416822840019
561.01739095170296,591.10659389489388,593.77093632002811,639.22453019263901,685.76416822840019
561.01739095170296,591.10659389489388,593.77093632002811,639.22453019263901,685.76416822840019
561.01739095170296,591.10659389489388,593.77093632002811,639.22453019263901,685.76416822840019
561.01739095170296,591.10659389489388,593.77093632002811,639.22453019263901,685.76416822840019
561.01739095170296,591.10659389489388,593.77093632002811,639.22453019263901,685.76416822840019
561.01739095170296,591.10659389489388,593.77093632002811,639.22453019263901,685.76416822840019
561.01739095170296,591.10659389489388,593.77093632002811,639.22453019263901,685.76416822840019
561.01739095170296,591.10659389489388,593.77093632002811,639.22453019263901,685.41061483780641
520.73519884973575,590.5288966362582,591.77902549902046,639.22453019263901,684.57409853406898
492.41625242522082,589.82178985507164,591.10659389489388,639.22453019263901,684.34995466602709
493.87443235034084,581.38727646357006,590.5288966362582,638.74156727949435,684.47936418857807
493.87443235034084,581.38727646357006,590.5288966362582,637.90505097575692,684.47936418857807
493.87443235034084,581.38727646357006,590.5288966362582,637.90505097575692,684.47936418857807
493.87443235034084,581.38727646357006,590.5288966362582,637.90505097575692,684.47936418857807
493.87443235034084,581.38727646357006,590.5288966362582,637.90505097575692,684.47936418857807
493.87443235034084,581.38727646357006,590.5288966362582,637.90505097575692,684.47936418857807
493.87443235034084,581.38727646357006,590.5288966362582,637.90505097575692,684.47936418857807
493.87443235034084,581.38727646357006,590.5288966362582,637.90505097575692,684.47936418857807
493.87443235034084,581.38727646357006,590.5288966362582,638.74156727949435,684.47936418857807
493.87443235034084,581.38727646357006,590.5288966362582,639.22453019263901,684.47936418857807
493.87443235034084,581.38727646357006,590.5288966362582,639.22453019263901,684.47936418857807
493.87443235034084,581.38727646357006,590.5288966362582,639.22453019263901,684.47936418857807
493.87443235034084,581.38727646357006,590.5288966362582,639.22453019263901,684.34995466602709
493.87443235034084,581.38727646357006,590.5288966362582,639.22453019263901,684.57409853406898
493.87443235034084,581.38727646357006,590.5288966362582,639.09512067008814,685.41061483780641
493.87443235034084,581.38727646357006,590.5288966362582,639.31926453812991,685.76416822840019
493.87443235034084,581.38727646357006,590.5288966362582,639.31926453812991,685.98831209644209
493.87443235034084,581.38727646357006,590.5288966362582,639.31926453812991,686.82482840017951
493.87443235034084,581.38727646357006,590.5288966362582,639.31926453812991,687.1783817907733
493.87443235034084,581.38727646357006,590.5288966362582,639.31926453812991,687.40252565881519
493.87443235034084,581.38727646357006,590.5288966362582,639.31926453812991,688.10963244000175
493.87443235034084,581.38727646357006,590.5288966362582,639.31926453812991,688.55792017608644
493.87443235034084,581.38727646357006,590.5288966362582,639.31926453812991,689.45449564825481
493.87443235034084,581.38727646357006,590.5288966362582,639.31926453812991,692.15351325044912
493.87443235034084,581.38727646357006,590.5288966362582,639.31926453812991,695.85313185599284
493.87443235034084,581.38727646357006,590.5288966362582,639.31926453812991,698.00912737661338
493.87443235034084,581.38727646357006,590.5288966362582,639.31926453812991,698.58682463524906
493.87443235034084,581.38727646357006,590.5288966362582,639.31926453812991,699.64748480702838
493.87443235034084,581.38727646357006,590.5288966362582,639.31926453812991,700.96696402391046
493.87443235034084,581.38727646357006,590.5288966362582,639.31926453812991,701.32051741450425
493.87443235034084,581.38727646357006,590.5288966362582,639.31926453812991,701.54466128254614
493.87443235034084,581.38727646357006,590.5288966362582,639.31926453812991,702.38117758628357
493.87443235034084,581.38727646357006,590.5288966362582,639.31926453812991,702.60532145432649
493.87443235034084,581.38727646357006,590.5288966362582,639.31926453812991,703.05360919041027
493.87443235034084,581.38727646357006,590.5288966362582,639.31926453812991,704.59723227533414
493.87443235034084,581.38727646357006,590.5288966362582,639.31926453812991,705.78730196966535
493.87443235034084,581.38727646357006,590.5288966362582,639.31926453812991,706.62381827340289
493.87443235034084,581.38727646357006,590.5288966362582,639.31926453812991,706.97737166399668
493.87443235034084,581.38727646357006,590.5288966362582,639.31926453812991,707.20151553203857
493.87443235034084,581.38727646357006,590.5288966362582,639.31926453812991,708.038031835776
493.87443235034084,581.38727646357006,590.5288966362582,639.31926453812991,708.52099474892066
493.87443235034084,581.38727646357006,590.5288966362582,639.31926453812991,708.52099474892066
493.87443235034084,581.38727646357006,590.5288966362582,639.31926453812991,708.39158522636978
493.87443235034084,581.38727646357006,590.5288966362582,639.31926453812991,708.4863195718608
493.87443235034084,581.38727646357006,590.5288966362582,639.31926453812991,709.41757022108914
493.87443235034084,581.38727646357006,590.5288966362582,639.31926453812991,709.41757022108914
493.87443235034084,581.38727646357006,590.5288966362582,639.31926453812991,708.4863195718608
493.87443235034084,581.38727646357006,590.5288966362582,639.31926453812991,708.39158522636978
493.87443235034084,581.38727646357006,590.5288966362582,639.31926453812991,708.52099474892066
493.87443235034084,581.38727646357006,590.5288966362582,639.31926453812991,708.52099474892066
493.87443235034084,581.38727646357006,590.5288966362582,639.09512067008814,708.038031835776
493.87443235034084,581.38727646357006,590.5288966362582,639.22453019263901,707.20151553203857
493.87443235034084,581.38727646357006,590.5288966362582,638.74156727949435,706.97737166399668
493.87443235034084,581.38727646357006,590.5288966362582,637.42208806261215,706.62381827340289
493.87443235034084,581.38727646357006,590.5288966362582,635.87846497768817,704.82137614337603
493.87443235034084,581.38727646357006,590.5288966362582,633.49832558902563,702.92419966785928
493.87443235034084,581.38727646357006,590.5288966362582,629.92811650603301,702.12235854118171
493.87443235034084,581.51668598612093,589.82178985507164,626.74613599069392,700.57873545625671
493.87443235034084,579.00713707490854,589.59764598702975,625.01304421478812,695.78378150187177
493.87443235034084,577.49818916704544,588.27816677014664,623.85764969751688,690.44580546591419
493.87443235034084,577.66227386665639,585.28565494578959,622.44343613514377,688.87679838962026
493.87443235034084,576.95516708546984,583.77670703792649,621.51218548591532,688.8167392211883
493.87443235034084,576.95516708546984,583.94079173753744,620.45152531413498,688.10963244000175
493.87443235034084,576.95516708546984,583.94079173753744,618.907902229211,687.40252565881519
493.87443235034084,576.95516708546984,583.94079173753744,617.4936886668379,687.1783817907733
493.87443235034084,576.95516708546984,583.94079173753744,616.07947510446479,686.82482840017951
493.87443235034084,576.95516708546984,583.94079173753744,614.66526154209168,685.50534918329743
493.87443235034084,576.95516708546984,583.94079173753744,613.25104797971858,684.44468901151799
493.87443235034084,576.95516708546984,583.94079173753744,611.83683441734547,684.34995466602709
493.87443235034084,576.95516708546984,583.94079173753744,610.90558376811714,684.47936418857807
493.87443235034084,576.95516708546984,583.94079173753744,610.32788650948146,683.99640127543341
493.87443235034084,576.95516708546984,583.94079173753744,608.65485390200558,683.15988497169587
493.87443235034084,576.95516708546984,583.94079173753744,606.27471451334407,682.93574110365398
493.87443235034084,576.95516708546984,583.94079173753744,605.11931999607373,682.09922479991553
493.87443235034084,576.95516708546984,583.94079173753744,605.11931999607373,680.42619219244068
493.87443235034084,576.95516708546984,583.94079173753744,605.11931999607373,679.9779044563569
493.87443235034084,576.95516708546984,583.94079173753744,605.11931999607373,679.75376058831409
493.87443235034084,576.95516708546984,583.94079173753744,605.11931999607373,678.43428137143189
493.87443235034084,576.95516708546984,583.94079173753744,605.11931999607373,677.37362119965258
493.87443235034084,576.95516708546984,583.94079173753744,605.11931999607373,676.79592394101701
493.87443235034084,576.95516708546984,583.94079173753744,605.11931999607373,675.12289133354102
493.87443235034084,576.95516708546984,583.94079173753744,605.11931999607373,673.22571485802428
493.87443235034084,576.95516708546984,583.94079173753744,605.11931999607373,672.42387373134682
493.87443235034084,576.95516708546984,583.94079173753744,605.11931999607373,671.84617647271114
493.87443235034084,576.95516708546984,583.94079173753744,605.11931999607373,670.17314386523526
493.87443235034084,576.95516708546984,583.94079173753744,605.11931999607373,667.79300447657374
493.87443235034084,576.95516708546984,583.94079173753744,605.11931999607373,667.12057287244818
493.87443235034084,576.95516708546984,583.94079173753744,605.11931999607373,667.02583852695625
493.87443235034084,576.95516708546984,583.94079173753744,605.11931999607373,666.18932222321882
493.87443235034084,576.95516708546984,583.94079173753744,605.11931999607373,665.96517835517693
493.87443235034084,576.95516708546984,583.94079173753744,605.11931999607373,666.0945878777278
493.87443235034084,576.95516708546984,583.94079173753744,605.11931999607373,666.0945878777278
493.87443235034084,576.95516708546984,583.94079173753744,605.11931999607373,665.61162496458314
493.87443235034084,576.95516708546984,583.94079173753744,605.11931999607373,664.77510866084572
493.87443235034084,576.95516708546984,583.94079173753744,605.11931999607373,664.55096479280382
493.87443235034084,576.95516708546984,583.94079173753744,605.11931999607373,664.6803743153547
493.87443235034084,576.95516708546984,583.94079173753744,605.11931999607373,664.6803743153547
493.87443235034084,576.95516708546984,583.94079173753744,605.11931999607373,664.19741140221004
493.87443235034084,576.95516708546984,583.94079173753744,605.11931999607373,663.3608950984725
493.87443235034084,576.95516708546984,583.94079173753744,605.11931999607373,663.13675123043072
493.87443235034084,576.95516708546984,583.94079173753744,605.11931999607373,663.26616075298159
493.87443235034084,576.95516708546984,583.94079173753744,605.11931999607373,663.26616075298159
493.87443235034084,576.95516708546984,583.94079173753744,605.11931999607373,663.26616075298159
493.87443235034084,576.95516708546984,583.94079173753744,605.11931999607373,663.26616075298159
493.87443235034084,576.95516708546984,583.94079173753744,605.11931999607373,663.26616075298159
493.87443235034084,583.58723834694365,584.03552608302834,606.27471451334407,663.13675123043072
490.63919428656789,583.94079173753744,584.96677673225679,608.65485390200558,663.3608950984725
490.63919428656789,583.94079173753744,584.96677673225679,610.32788650948146,664.19741140221004
490.63919428656789,583.94079173753744,584.96677673225679,610.32788650948146,664.6803743153547
490.63919428656789,583.94079173753744,584.96677673225679,610.32788650948146,664.6803743153547
490.63919428656789,583.94079173753744,584.96677673225679,610.32788650948146,664.6803743153547
490.63919428656789,583.94079173753744,584.96677673225679,610.32788650948146,664.6803743153547
490.63919428656789,583.94079173753744,584.96677673225679,610.32788650948146,664.6803743153547
490.63919428656789,583.94079173753744,584.96677673225679,610.32788650948146,664.6803743153547
490.63919428656789,583.94079173753744,584.96677673225679,610.32788650948146,664.6803743153547
490.63919428656789,583.94079173753744,584.96677673225679,610.32788650948146,664.6803743153547
490.63919428656789,583.94079173753744,584.96677673225679,610.32788650948146,664.6803743153547
490.63919428656789,583.94079173753744,584.96677673225679,610.32788650948146,664.6803743153547
490.63919428656789,583.94079173753744,584.96677673225679,610.32788650948146,664.6803743153547
490.63919428656789,583.94079173753744,584.96677673225679,610.32788650948146,664.6803743153547
490.63919428656789,583.94079173753744,584.96677673225679,610.32788650948146,664.6803743153547
490.63919428656789,583.94079173753744,584.96677673225679,610.32788650948146,664.19741140221004
490.63919428656789,583.94079173753744,584.96677673225679,610.32788650948146,663.3608950984725
490.63919428656789,583.94079173753744,584.96677673225679,610.32788650948146,663.13675123043072
490.63919428656789,583.94079173753744,584.96677673225679,610.32788650948146,663.26616075298159
490.63919428656789,583.94079173753744,584.96677673225679,610.32788650948146,663.26616075298159
490.63919428656789,583.94079173753744,584.96677673225679,610.32788650948146,663.26616075298159
490.63919428656789,583.94079173753744,584.96677673225679,610.32788650948146,663.26616075298159
490.63919428656789,583.94079173753744,584.96677673225679,610.32788650948146,663.26616075298159
490.63919428656789,583.94079173753744,584.96677673225679,610.32788650948146,663.26616075298159
490.63919428656789,583.94079173753744,584.96677673225679,610.32788650948146,663.26616075298159
490.63919428656789,583.94079173753744,584.96677673225679,610.32788650948146,663.26616075298159
490.63919428656789,583.94079173753744,584.96677673225679,610.32788650948146,663.26616075298159
490.63919428656789,583.94079173753744,584.96677673225679,610.32788650948146,663.26616075298159
490.63919428656789,583.94079173753744,584.96677673225679,610.32788650948146,663.26616075298159
490.63919428656789,583.94079173753744,584.96677673225679,610.32788650948146,663.26616075298159
490.63919428656789,583.94079173753744,584.96677673225679,610.32788650948146,663.26616075298159
490.63919428656789,583.94079173753744,584.96677673225679,610.32788650948146,663.26616075298159
490.63919428656789,583.94079173753744,584.96677673225679,610.32788650948146,663.26616075298159
490.63919428656789,583.94079173753744,584.96677673225679,610.32788650948146,663.26616075298159
490.63919428656789,583.94079173753744,584.96677673225679,610.32788650948146,663.26616075298159
490.63919428656789,583.94079173753744,584.96677673225679,610.32788650948146,663.26616075298159
490.63919428656789,583.94079173753744,584.96677673225679,610.32788650948146,663.26616075298159
490.63919428656789,583.94079173753744,584.96677673225679,610.32788650948146,663.26616075298159
480.13910766565266,583.58723834694365,584.03552608302834,608.65485390200558,662.78319783983693
483.11552668432387,570.19368630144413,583.94079173753744,606.27471451334407,661.9466815360995
483.11552668432387,559.93134678855267,583.58723834694365,605.11931999607373,661.72253766805761
483.11552668432387,559.93134678855267,583.58723834694365,605.11931999607373,661.8519471906086
483.11552668432387,559.93134678855267,583.58723834694365,605.11931999607373,661.8519471906086
483.11552668432387,559.93134678855267,583.58723834694365,605.11931999607373,661.8519471906086
483.11552668432387,559.93134678855267,583.58723834694365,605.11931999607373,661.8519471906086
483.11552668432387,559.93134678855267,583.58723834694365,605.11931999607373,661.8519471906086
483.11552668432387,559.93134678855267,583.58723834694365,605.11931999607373,661.8519471906086
483.11552668432387,559.93134678855267,583.58723834694365,605.11931999607373,661.8519471906086
483.11552668432387,559.93134678855267,583.58723834694365,605.11931999607373,661.8519471906086
483.11552668432387,559.93134678855267,583.58723834694365,605.11931999607373,661.8519471906086
483.11552668432387,559.93134678855267,583.58723834694365,605.11931999607373,661.72253766805761
483.11552668432387,559.93134678855267,583.58723834694365,605.11931999607373,661.9466815360995
483.11552668432387,559.93134678855267,583.58723834694365,605.11931999607373,662.78319783983693
483.11552668432387,559.93134678855267,583.58723834694365,605.11931999607373,663.26616075298159
483.11552668432387,559.93134678855267,583.58723834694365,605.11931999607373,663.26616075298159
483.11552668432387,559.93134678855267,583.58723834694365,605.11931999607373,663.13675123043072
483.11552668432387,559.93134678855267,583.58723834694365,606.27471451334407,663.3608950984725
483.11552668432387,559.93134678855267,583.58723834694365,608.39603485690373,664.19741140221004
483.11552668432387,559.93134678855267,583.58723834694365,610.51735520046327,664.6803743153547
483.11552668432387,559.93134678855267,583.58723834694365,612.89749458912479,664.6803743153547
483.11552668432387,559.93134678855267,583.58723834694365,614.44111767404979,664.6803743153547
483.11552668432387,559.93134678855267,583.58723834694365,615.24295880072737,664.55096479280382
483.11552668432387,559.93134678855267,583.58723834694365,617.01072575369324,664.77510866084572
483.11552668432387,559.93134678855267,583.58723834694365,619.03731175176199,665.61162496458314
483.11552668432387,559.93134678855267,583.58723834694365,620.35679096864408,666.0945878777278
483.11552668432387,559.93134678855267,583.58723834694365,620.71034435923787,666.0945878777278
483.11552668432387,559.93134678855267,583.58723834694365,620.93448822727964,666.0945878777278
483.11552668432387,559.93134678855267,583.58723834694365,621.64159500846631,665.96517835517693
483.11552668432387,559.93134678855267,583.58723834694365,622.34870178965275,666.18932222321882
483.11552668432387,559.93134678855267,583.58723834694365,623.18521809339029,667.02583852695625
483.11552668432387,559.93134678855267,583.58723834694365,623.66818100653495,667.50880144010102
483.11552668432387,559.93134678855267,583.58723834694365,623.53877148398396,667.50880144010102
483.11552668432387,559.93134678855267,583.58723834694365,623.76291535202586,667.37939191755004
483.11552668432387,559.93134678855267,583.58723834694365,623.76291535202586,667.60353578559193
483.11552668432387,559.93134678855267,583.58723834694365,623.76291535202586,668.31064256677837
483.11552668432387,559.93134678855267,583.58723834694365,623.76291535202586,669.01774934796492
483.11552668432387,559.93134678855267,583.58723834694365,623.76291535202586,669.72485612915148
483.11552668432387,559.93134678855267,583.58723834694365,623.76291535202586,670.43196291033803
483.11552668432387,559.93134678855267,583.58723834694365,623.76291535202586,671.26847921407557
483.11552668432387,559.93134678855267,583.58723834694365,623.76291535202586,671.75144212722023
483.11552668432387,559.93134678855267,583.58723834694365,623.76291535202586,671.62203260466924
483.11552668432387,559.93134678855267,583.58723834694365,623.76291535202586,671.84617647271114
483.11552668432387,559.93134678855267,583.58723834694365,623.76291535202586,672.68269277644868
483.11552668432387,559.93134678855267,583.58723834694365,623.76291535202586,673.16565568959334
483.11552668432387,559.93134678855267,583.58723834694365,623.76291535202586,673.03624616704246
483.11552668432387,559.93134678855267,583.58723834694365,623.76291535202586,673.13098051253337
483.11552668432387,559.93134678855267,583.58723834694365,623.76291535202586,674.19164068431269
483.11552668432387,559.93134678855267,583.58723834694365,623.76291535202586,675.51111990119477
483.11552668432387,559.93134678855267,583.58723834694365,623.76291535202586,675.51111990119477
483.11552668432387,559.93134678855267,583.58723834694365,623.76291535202586,675.51111990119477
483.11552668432387,559.93134678855267,583.58723834694365,623.76291535202586,675.51111990119477
483.11552668432387,559.93134678855267,583.58723834694365,623.76291535202586,675.51111990119477
483.11552668432387,559.93134678855267,583.58723834694365,623.76291535202586,675.51111990119477
483.11552668432387,559.93134678855267,583.58723834694365,623.53877148398396,675.51111990119477
483.11552668432387,559.93134678855267,583.58723834694365,623.66818100653495,675.51111990119477
483.11552668432387,559.93134678855267,583.58723834694365,623.18521809339029,675.51111990119477
483.11552668432387,559.93134678855267,583.58723834694365,622.34870178965275,675.51111990119477
483.11552668432387,559.93134678855267,583.58723834694365,621.64159500846631,675.51111990119477
483.11552668432387,559.93134678855267,583.58723834694365,620.93448822727964,675.51111990119477
483.11552668432387,559.93134678855267,583.58723834694365,620.71034435923787,675.51111990119477
483.11552668432387,559.93134678855267,583.58723834694365,619.87382805549942,674.19164068431269
483.11552668432387,559.93134678855267,583.58723834694365,617.71783253487979,673.13098051253337
483.11552668432387,559.93134678855267,583.58723834694365,615.9500655819138,673.03624616704246
483.11552668432387,559.93134678855267,583.58723834694365,614.66526154209168,673.16565568959334
483.11552668432387,559.93134678855267,583.58723834694365,613.25104797971858,672.68269277644868
483.11552668432387,559.93134678855267,583.58723834694365,612.31979733049025,671.84617647271114
483.11552668432387,559.93134678855267,583.58723834694365,612.31979733049025,671.62203260466924
483.11552668432387,559.93134678855267,583.58723834694365,612.31979733049025,671.26847921407557
483.11552668432387,559.93134678855267,583.58723834694365,612.31979733049025,670.43196291033803
483.11552668432387,559.93134678855267,583.58723834694365,612.31979733049025,669.72485612915148
483.11552668432387,559.93134678855267,583.58723834694365,612.31979733049025,669.01774934796492
483.11552668432387,559.93134678855267,583.58723834694365,612.31979733049025,668.31064256677837
483.11552668432387,559.93134678855267,583.58723834694365,612.31979733049025,667.60353578559193
483.11552668432387,559.93134678855267,583.58723834694365,612.31979733049025,667.37939191755004
483.11552668432387,559.93134678855267,583.58723834694365,612.31979733049025,667.50880144010102
483.11552668432387,559.93134678855267,583.58723834694365,612.31979733049025,667.50880144010102
483.11552668432387,559.93134678855267,583.58723834694365,612.31979733049025,667.02583852695625
483.11552668432387,559.93134678855267,583.58723834694365,612.31979733049025,666.18932222321882
483.11552668432387,559.93134678855267,583.58723834694365,612.31979733049025,666.18932222321882
483.11552668432387,559.93134678855267,583.58723834694365,612.31979733049025,666.18932222321882
483.11552668432387,559.93134678855267,583.58723834694365,612.31979733049025,666.18932222321882
483.11552668432387,559.93134678855267,583.58723834694365,612.31979733049025,666.18932222321882
483.11552668432387,559.93134678855267,583.58723834694365,612.31979733049025,666.18932222321882
483.11552668432387,559.93134678855267,583.58723834694365,612.31979733049025,666.18932222321882
483.11552668432387,559.93134678855267,583.58723834694365,612.31979733049025,666.18932222321882
483.11552668432387,559.93134678855267,583.58723834694365,612.31979733049025,666.18932222321882
483.11552668432387,559.93134678855267,583.58723834694365,612.31979733049025,666.18932222321882
483.11552668432387,559.93134678855267,583.58723834694365,612.31979733049025,666.18932222321882
483.11552668432387,559.93134678855267,583.58723834694365,612.31979733049025,666.18932222321882
483.11552668432387,559.93134678855267,583.58723834694365,612.31979733049025,667.02583852695625
483.11552668432387,559.93134678855267,583.58723834694365,612.31979733049025,667.50880144010102
483.11552668432387,559.93134678855267,583.58723834694365,612.31979733049025,667.50880144010102
483.11552668432387,559.93134678855267,583.58723834694365,612.31979733049025,667.50880144010102
483.11552668432387,559.93134678855267,583.58723834694365,612.31979733049025,667.50880144010102
483.11552668432387,559.93134678855267,583.58723834694365,612.31979733049025,667.50880144010102
483.11552668432387,559.93134678855267,583.58723834694365,612.31979733049025,667.50880144010102
483.11552668432387,559.93134678855267,583.58723834694365,612.31979733049025,667.50880144010102
483.11552668432387,559.93134678855267,583.58723834694365,612.31979733049025,667.50880144010102
483.11552668432387,559.93134678855267,583.58723834694365,612.31979733049025,667.50880144010102
483.11552668432387,559.93134678855267,583.58723834694365,612.31979733049025,667.50880144010102
483.11552668432387,559.93134678855267,583.58723834694365,612.31979733049025,667.50880144010102
483.11552668432387,559.93134678855267,583.58723834694365,613.38045750226956,667.50880144010102
494.64408786566537,576.95516708546984,583.94079173753744,614.57052719660078,667.50880144010102
505.51631024855237,583.58723834694365,584.03552608302834,615.27763397778733,667.37939191755004
507.10141013052737,583.94079173753744,584.96677673225679,616.11415028152476,667.60353578559193
507.10141013052737,583.94079173753744,584.96677673225679,616.46770367211855,668.31064256677837
507.10141013052737,583.94079173753744,584.96677673225679,616.46770367211855,669.01774934796492
507.10141013052737,583.94079173753744,584.96677673225679,616.46770367211855,669.85426565170246
507.10141013052737,583.94079173753744,584.96677673225679,616.46770367211855,670.20781904229625
507.10141013052737,583.94079173753744,584.96677673225679,616.46770367211855,670.43196291033803
507.10141013052737,583.94079173753744,584.96677673225679,616.46770367211855,671.26847921407557
507.10141013052737,583.94079173753744,584.96677673225679,616.46770367211855,671.75144212722023
507.10141013052737,583.94079173753744,584.96677673225679,616.46770367211855,671.75144212722023
507.10141013052737,583.94079173753744,584.96677673225679,616.46770367211855,671.75144212722023
507.10141013052737,583.94079173753744,584.96677673225679,616.46770367211855,671.75144212722023
507.10141013052737,583.94079173753744,584.96677673225679,616.46770367211855,671.75144212722023
507.10141013052737,583.94079173753744,584.96677673225679,616.46770367211855,671.75144212722023
507.10141013052737,583.94079173753744,584.96677673225679,616.46770367211855,671.75144212722023
507.10141013052737,583.94079173753744,584.96677673225679,616.46770367211855,671.75144212722023
507.10141013052737,583.94079173753744,584.96677673225679,616.46770367211855,671.75144212722023
507.10141013052737,583.94079173753744,584.96677673225679,616.46770367211855,671.75144212722023
507.10141013052737,583.94079173753744,584.96677673225679,616.46770367211855,671.75144212722023
507.10141013052737,583.94079173753744,584.96677673225679,616.46770367211855,671.75144212722023
507.10141013052737,583.94079173753744,584.96677673225679,616.46770367211855,671.75144212722023
507.10141013052737,583.94079173753744,584.96677673225679,616.46770367211855,671.75144212722023
507.10141013052737,583.94079173753744,584.96677673225679,616.46770367211855,671.75144212722023
507.10141013052737,583.94079173753744,584.96677673225679,616.46770367211855,671.75144212722023
507.10141013052737,583.94079173753744,584.96677673225679,616.46770367211855,671.75144212722023
507.10141013052737,583.94079173753744,584.96677673225679,616.46770367211855,671.75144212722023
507.10141013052737,583.94079173753744,584.96677673225679,616.46770367211855,671.26847921407557
507.10141013052737,583.94079173753744,584.96677673225679,616.46770367211855,670.43196291033803
507.10141013052737,583.94079173753744,584.96677673225679,616.46770367211855,670.20781904229625
507.10141013052737,583.94079173753744,584.96677673225679,616.46770367211855,669.85426565170246
507.10141013052737,583.94079173753744,584.96677673225679,616.46770367211855,669.01774934796492
507.10141013052737,583.94079173753744,584.96677673225679,616.46770367211855,668.31064256677837
507.10141013052737,583.94079173753744,584.96677673225679,616.46770367211855,668.44005208932936
507.10141013052737,583.94079173753744,584.96677673225679,616.46770367211855,668.44005208932936
507.10141013052737,583.94079173753744,584.96677673225679,616.46770367211855,667.60353578559193
507.10141013052737,583.94079173753744,584.96677673225679,616.46770367211855,667.60353578559193
507.10141013052737,583.94079173753744,584.96677673225679,616.46770367211855,667.60353578559193
507.10141013052737,583.94079173753744,584.96677673225679,616.46770367211855,667.60353578559193
507.10141013052737,583.94079173753744,584.96677673225679,616.46770367211855,667.60353578559193
507.10141013052737,583.94079173753744,584.96677673225679,616.46770367211855,667.60353578559193
507.10141013052737,583.94079173753744,584.96677673225679,616.46770367211855,667.60353578559193
507.10141013052737,583.94079173753744,584.96677673225679,616.46770367211855,667.60353578559193
507.10141013052737,583.94079173753744,584.96677673225679,616.46770367211855,667.60353578559193
507.10141013052737,583.94079173753744,584.96677673225679,616.46770367211855,667.60353578559193
507.10141013052737,583.94079173753744,584.96677673225679,616.46770367211855,667.60353578559193
507.10141013052737,583.94079173753744,584.96677673225679,616.46770367211855,667.60353578559193
507.10141013052737,583.94079173753744,584.96677673225679,616.46770367211855,667.60353578559193
507.10141013052737,583.94079173753744,584.96677673225679,616.46770367211855,667.60353578559193
507.10141013052737,583.94079173753744,584.96677673225679,616.46770367211855,667.37939191755004
489.48628933500254,583.58723834694365,584.03552608302834,616.11415028152476,667.37939191755004
494.14503214683577,576.95516708546984,583.94079173753744,615.27763397778733,667.37939191755004
494.14503214683577,570.0388927875282,583.58723834694365,614.57052719660078,667.37939191755004
494.14503214683577,570.0388927875282,583.58723834694365,614.57052719660078,667.37939191755004
494.14503214683577,570.0388927875282,583.58723834694365,615.27763397778733,667.60353578559193
494.14503214683577,570.0388927875282,583.58723834694365,616.11415028152476,668.44005208932936
494.14503214683577,570.0388927875282,583.58723834694365,616.46770367211855,668.79360547992303
494.14503214683577,570.0388927875282,583.58723834694365,616.43302849505858,669.01774934796492
494.14503214683577,570.0388927875282,583.58723834694365,617.71783253487979,669.85426565170246
494.14503214683577,570.0388927875282,583.58723834694365,619.87382805549942,670.33722856484712
494.14503214683577,570.0388927875282,583.58723834694365,620.71034435923787,670.33722856484712
494.14503214683577,570.0388927875282,583.32841930184179,620.93448822727964,670.33722856484712
494.14503214683577,570.0388927875282,583.64729751537459,621.77100453101707,670.20781904229625
494.14503214683577,570.00421761046823,585.89802738148512,622.12455792161097,670.43196291033803
494.14503214683577,570.32309582400103,587.92461337955376,622.34870178965275,671.26847921407557
494.14503214683577,570.32309582400103,587.53638481190103,623.18521809339029,671.75144212722023
494.14503214683577,570.19368630145016,588.78651367466227,623.66818100653495,671.75144212722023
494.14503214683577,570.2537454698811,592.45145710314591,623.66818100653495,671.62203260466924
494.14503214683577,570.6673580289048,595.89225666358766,623.66818100653495,671.84617647271114
494.14503214683577,570.85682671988661,598.62594944284297,623.53877148398396,672.68269277644868
494.14503214683577,571.17570493341941,600.52312591836073,623.63350582947498,673.16565568959334
494.14503214683577,571.27043927891043,602.06674900328483,624.43534695615244,673.16565568959334
494.14503214683577,571.14102975635944,602.90326530702225,626.20311390911831,673.16565568959334
494.14503214683577,571.14102975635944,602.90326530702225,628.35910942973794,673.03624616704246
494.14503214683577,571.14102975635944,602.77385578447138,629.19562573347639,673.26039003508424
494.14503214683577,571.14102975635944,602.64444626192039,629.2903600789673,674.09690633882167
494.14503214683577,571.14102975635944,602.64444626192039,630.09220120564487,674.57986925196633
494.14503214683577,571.14102975635944,602.64444626192039,631.73055863605975,674.57986925196633
494.14503214683577,571.14102975635944,602.64444626192039,633.9812885021704,674.57986925196633
494.14503214683577,571.14102975635944,602.64444626192039,636.00787450023904,674.57986925196633
494.14503214683577,571.14102975635944,602.64444626192039,637.32735371712124,674.57986925196633
494.14503214683577,571.14102975635944,602.64444626192039,637.8103166302659,674.45045972941546
494.14503214683577,571.14102975635944,602.64444626192039,637.68090710771503,674.67460359745735
494.14503214683577,571.14102975635944,602.64444626192039,637.90505097575692,675.51111990119477
494.14503214683577,571.14102975635944,602.64444626192039,638.48274823439249,675.99408281433944
494.14503214683577,571.14102975635944,602.64444626192039,639.41399888362093,675.99408281433944
494.14503214683577,571.14102975635944,602.64444626192039,641.08703149109579,675.86467329178856
494.14503214683577,571.14102975635944,602.64444626192039,641.92354779483423,676.08881715983034
494.14503214683577,571.14102975635944,602.64444626192039,641.92354779483423,676.92533346356788
494.14503214683577,571.14102975635944,602.64444626192039,641.92354779483423,677.40829637671254
494.14503214683577,571.14102975635944,602.64444626192039,642.01828214032514,677.40829637671254
494.14503214683577,571.14102975635944,602.64444626192039,642.01828214032514,677.40829637671254
494.14503214683577,571.14102975635944,602.64444626192039,642.01828214032514,677.40829637671254
494.14503214683577,571.14102975635944,602.64444626192039,642.01828214032514,677.27888685416167
494.14503214683577,571.14102975635944,602.64444626192039,642.01828214032514,677.50303072220356
494.14503214683577,571.14102975635944,602.64444626192039,642.01828214032514,678.33954702594099
494.14503214683577,571.14102975635944,602.64444626192039,642.01828214032514,678.69310041653478
494.14503214683577,571.14102975635944,602.64444626192039,642.01828214032514,678.91724428457655
494.14503214683577,571.14102975635944,602.64444626192039,642.01828214032514,679.75376058831409
494.14503214683577,571.14102975635944,602.64444626192039,642.01828214032514,679.75376058831409
494.14503214683577,571.14102975635944,602.64444626192039,642.01828214032514,679.75376058831409
494.14503214683577,571.14102975635944,602.64444626192039,641.44058488168957,679.75376058831409
494.14503214683577,571.14102975635944,602.64444626192039,640.25051518735836,679.75376058831409
494.14503214683577,571.14102975635944,602.64444626192039,638.70689210243427,679.75376058831409
494.14503214683577,571.14102975635944,602.64444626192039,637.77564145320594,679.75376058831409
494.14503214683577,571.14102975635944,602.64444626192039,636.71498128142559,679.75376058831409
494.14503214683577,571.14102975635944,602.64444626192039,634.20543237021218,679.75376058831409
494.14503214683577,571.14102975635944,602.77385578447138,631.60114911350888,679.75376058831409
494.14503214683577,571.27043927891043,602.06674900328483,630.09220120564487,679.75376058831409
494.14503214683577,571.27043927891043,601.84260513524293,629.2903600789673,679.75376058831409
494.14503214683577,571.27043927891043,601.97201465779381,628.71266282033173,679.75376058831409
494.14503214683577,571.17570493341941,600.65253544091161,627.5225931260004,678.91724428457655
494.14503214683577,570.63268285184483,598.14298652969831,625.49600712793176,678.69310041653478
494.14503214683577,570.89150189694669,596.37521957673243,623.72824017496589,678.33954702594099
494.14503214683577,570.79676755145567,594.73686214631743,622.92639904828843,677.50303072220356
494.14503214683577,570.79676755145567,594.77153732337752,622.34870178965275,677.27888685416167
494.14503214683577,570.79676755145567,594.90094684592839,622.12455792161097,677.40829637671254
494.14503214683577,570.79676755145567,594.90094684592839,621.77100453101707,677.40829637671254
494.14503214683577,570.79676755145567,594.90094684592839,620.93448822727964,677.40829637671254
494.14503214683577,570.92617707400666,594.06443054219085,619.74441853294843,677.40829637671254
494.14503214683577,570.2537454698811,592.39139793471497,618.20079544802445,676.92533346356788
494.14503214683577,570.38315499243197,591.68429115352842,617.26954479879601,676.08881715983034
494.14503214683577,570.51256451498296,590.6236309817491,616.69184754016032,676.08881715983034
494.14503214683577,570.51256451498296,590.5288966362582,616.46770367211855,676.08881715983034
494.14503214683577,570.51256451498296,590.5288966362582,616.11415028152476,676.08881715983034
494.14503214683577,570.51256451498296,590.5288966362582,614.31170815149801,676.08881715983034
494.14503214683577,570.51256451498296,590.5288966362582,612.41453167598115,676.08881715983034
494.14503214683577,570.51256451498296,590.5288966362582,612.31979733049025,676.08881715983034
494.14503214683577,570.51256451498296,590.5288966362582,612.31979733049025,676.08881715983034
494.14503214683577,570.51256451498296,590.5288966362582,612.31979733049025,676.08881715983034
494.14503214683577,570.51256451498296,590.5288966362582,612.31979733049025,676.08881715983034
494.14503214683577,570.51256451498296,590.5288966362582,612.31979733049025,676.08881715983034
494.14503214683577,570.51256451498296,590.5288966362582,612.31979733049025,676.08881715983034
494.14503214683577,570.51256451498296,590.5288966362582,612.31979733049025,676.08881715983034
494.14503214683577,570.51256451498296,590.5288966362582,612.31979733049025,675.86467329178856
494.14503214683577,570.51256451498296,590.5288966362582,612.31979733049025,675.99408281433944
494.14503214683577,570.51256451498296,590.5288966362582,612.31979733049025,675.51111990119477
494.14503214683577,570.51256451498296,590.5288966362582,612.31979733049025,674.67460359745735
494.14503214683577,570.51256451498296,590.5288966362582,612.31979733049025,674.45045972941546
494.14503214683577,570.51256451498296,590.5288966362582,612.31979733049025,674.57986925196633
494.14503214683577,570.51256451498296,590.5288966362582,612.31979733049025,674.57986925196633
494.14503214683577,570.51256451498296,590.5288966362582,612.31979733049025,674.57986925196633
494.14503214683577,570.51256451498296,590.5288966362582,612.31979733049025,674.57986925196633
494.14503214683577,570.51256451498296,590.5288966362582,612.31979733049025,674.09690633882167
494.14503214683577,570.51256451498296,590.5288966362582,612.31979733049025,674.09690633882167
494.14503214683577,570.51256451498296,590.5288966362582,612.31979733049025,674.57986925196633
502.51699680421035,583.5432719841906,591.10659389489388,613.25104797971858,674.57986925196633
510.90505426725099,590.5288966362582,592.16725406667319,614.79467106464267,674.57986925196633
510.11930594625647,591.10659389489388,593.48673328355528,616.11415028152476,674.57986925196633
510.11930594625647,591.10659389489388,593.48673328355528,616.11415028152476,674.57986925196633
510.11930594625647,591.10659389489388,593.48673328355528,616.11415028152476,674.57986925196633
510.11930594625647,591.10659389489388,593.48673328355528,616.11415028152476,674.57986925196633
510.11930594625647,591.10659389489388,593.48673328355528,616.11415028152476,674.57986925196633
510.11930594625647,591.10659389489388,593.48673328355528,616.11415028152476,674.57986925196633
510.11930594625647,591.10659389489388,593.48673328355528,616.11415028152476,674.09690633882167
510.11930594625647,591.10659389489388,593.48673328355528,616.11415028152476,673.26039003508424
510.11930594625647,591.10659389489388,593.48673328355528,616.11415028152476,673.03624616704246
510.11930594625647,591.10659389489388,593.48673328355528,616.11415028152476,673.16565568959334
510.11930594625647,591.10659389489388,593.48673328355528,616.11415028152476,673.16565568959334
510.11930594625647,591.10659389489388,593.48673328355528,616.11415028152476,673.16565568959334
510.11930594625647,591.10659389489388,593.48673328355528,616.11415028152476,673.16565568959334
510.11930594625647,591.10659389489388,593.48673328355528,616.11415028152476,672.68269277644868
510.11930594625647,591.10659389489388,593.48673328355528,616.11415028152476,671.84617647271114
510.11930594625647,591.10659389489388,593.48673328355528,616.11415028152476,671.62203260466924
510.11930594625647,591.10659389489388,593.48673328355528,616.11415028152476,671.75144212722023
510.11930594625647,591.10659389489388,593.48673328355528,616.11415028152476,671.75144212722023
510.11930594625647,591.10659389489388,593.48673328355528,616.11415028152476,671.26847921407557
510.11930594625647,591.10659389489388,593.48673328355528,616.11415028152476,670.43196291033803
510.11930594625647,591.10659389489388,593.48673328355528,616.11415028152476,670.20781904229625
510.11930594625647,591.10659389489388,593.48673328355528,616.11415028152476,670.33722856484712
510.11930594625647,591.10659389489388,593.48673328355528,616.11415028152476,670.33722856484712
510.11930594625647,591.10659389489388,593.48673328355528,616.11415028152476,670.33722856484712
510.11930594625647,591.10659389489388,593.48673328355528,616.11415028152476,669.85426565170246
510.11930594625647,591.10659389489388,593.48673328355528,616.11415028152476,669.01774934796492
510.11930594625647,591.10659389489388,593.48673328355528,616.11415028152476,668.79360547992303
510.11930594625647,591.10659389489388,593.48673328355528,616.11415028152476,668.79360547992303
510.11930594625647,591.10659389489388,593.48673328355528,616.11415028152476,668.79360547992303
510.11930594625647,591.10659389489388,593.48673328355528,616.11415028152476,668.79360547992303
510.11930594625647,591.10659389489388,593.48673328355528,616.11415028152476,668.79360547992303
510.11930594625647,591.10659389489388,593.48673328355528,616.11415028152476,668.79360547992303
510.11930594625647,591.10659389489388,593.48673328355528,616.11415028152476,668.79360547992303
510.11930594625647,591.10659389489388,593.48673328355528,616.11415028152476,668.79360547992303
510.11930594625647,591.10659389489388,593.48673328355528,616.11415028152476,668.92301500247402
510.11930594625647,591.10659389489388,593.48673328355528,616.11415028152476,668.44005208932936
510.11930594625647,591.10659389489388,593.48673328355528,616.11415028152476,667.60353578559193
510.11930594625647,591.10659389489388,593.48673328355528,616.11415028152476,667.37939191755004
510.11930594625647,591.10659389489388,593.48673328355528,616.11415028152476,667.50880144010102
510.11930594625647,591.10659389489388,593.48673328355528,616.11415028152476,667.50880144010102
510.11930594625647,591.10659389489388,593.48673328355528,616.11415028152476,667.50880144010102
510.11930594625647,591.10659389489388,593.48673328355528,616.11415028152476,667.50880144010102
510.11930594625647,591.10659389489388,593.48673328355528,616.11415028152476,667.50880144010102
510.11930594625647,591.10659389489388,593.48673328355528,616.11415028152476,667.50880144010102
510.11930594625647,591.10659389489388,593.48673328355528,616.11415028152476,667.50880144010102
510.11930594625647,591.10659389489388,593.48673328355528,616.11415028152476,667.50880144010102
510.11930594625647,591.10659389489388,593.48673328355528,616.11415028152476,667.50880144010102
510.11930594625647,591.10659389489388,593.48673328355528,616.11415028152476,667.50880144010102
510.11930594625647,591.10659389489388,593.48673328355528,616.11415028152476,667.50880144010102
510.11930594625647,591.10659389489388,593.48673328355528,616.11415028152476,667.50880144010102
510.11930594625647,591.10659389489388,593.48673328355528,616.11415028152476,667.50880144010102
510.11930594625647,591.10659389489388,593.48673328355528,616.11415028152476,667.50880144010102
510.11930594625647,591.10659389489388,593.48673328355528,616.11415028152476,667.50880144010102
510.11930594625647,591.10659389489388,593.48673328355528,616.11415028152476,667.50880144010102
510.11930594625647,591.10659389489388,593.48673328355528,616.11415028152476,667.50880144010102
510.11930594625647,591.10659389489388,593.48673328355528,616.11415028152476,667.50880144010102
510.11930594625647,591.10659389489388,593.48673328355528,615.98474075897389,667.50880144010102
510.11930594625647,591.10659389489388,593.48673328355528,616.69184754016032,667.50880144010102
503.50830662186968,590.5288966362582,592.16725406667319,616.69184754016032,667.50880144010102
493.0150216209355,583.5432719841906,591.10659389489388,616.69184754016032,667.50880144010102
493.0150216209355,559.40441751265507,590.5288966362582,616.69184754016032,667.50880144010102
493.0150216209355,559.40441751265507,590.5288966362582,616.69184754016032,667.50880144010102
493.0150216209355,559.40441751265507,590.5288966362582,617.52836384389786,667.50880144010102
493.0150216209355,559.40441751265507,590.5288966362582,617.62309818938979,667.37939191755004
493.0150216209355,559.40441751265507,590.5288966362582,618.16612027096448,667.60353578559193
493.0150216209355,559.40441751265507,590.5288966362582,620.89981305021865,668.44005208932936
493.0150216209355,559.40441751265507,590.5288966362582,623.18521809339029,668.92301500247402
493.0150216209355,559.40441751265507,590.5288966362582,623.40936196143309,668.79360547992303
493.0150216209355,559.40441751265507,590.5288966362582,623.85764969751676,669.01774934796492
493.0150216209355,559.40441751265507,590.5288966362582,625.40127278244086,669.85426565170246
493.0150216209355,559.40441751265507,590.5288966362582,626.59134247677207,670.33722856484712
493.0150216209355,559.40441751265507,590.5288966362582,627.29844925795862,670.33722856484712
493.0150216209355,559.40441751265507,590.5288966362582,627.87614651659419,670.33722856484712
493.0150216209355,559.40441751265507,590.5288966362582,628.67798764327176,670.33722856484712
493.0150216209355,559.40441751265507,590.5288966362582,628.99686585680456,670.20781904229625
493.0150216209355,559.40441751265507,590.5288966362582,631.47173959095699,670.43196291033803
493.0150216209355,559.40441751265507,590.5288966362582,631.79061780448978,671.26847921407557
493.0150216209355,559.40441751265507,590.5288966362582,631.79061780448978,671.75144212722023
493.0150216209355,559.40441751265507,590.5288966362582,631.79061780448978,671.75144212722023
493.0150216209355,559.40441751265507,590.5288966362582,631.79061780448978,671.75144212722023
493.0150216209355,559.40441751265507,590.5288966362582,631.79061780448978,671.75144212722023
493.0150216209355,559.40441751265507,590.5288966362582,631.79061780448978,671.75144212722023
493.0150216209355,559.40441751265507,590.5288966362582,631.79061780448978,671.75144212722023
493.0150216209355,559.40441751265507,590.5288966362582,631.79061780448978,671.62203260466924
493.0150216209355,559.40441751265507,590.5288966362582,631.79061780448978,671.84617647271114
493.0150216209355,559.40441751265507,590.5288966362582,631.79061780448978,672.68269277644868
493.0150216209355,559.40441751265507,590.5288966362582,631.79061780448978,673.16565568959334
493.0150216209355,559.40441751265507,590.5288966362582,631.79061780448978,673.16565568959334
493.0150216209355,559.40441751265507,590.5288966362582,631.79061780448978,673.16565568959334
493.0150216209355,559.40441751265507,590.5288966362582,631.79061780448978,673.16565568959334
493.0150216209355,559.40441751265507,590.5288966362582,631.79061780448978,673.16565568959334
493.0150216209355,559.40441751265507,590.5288966362582,631.79061780448978,673.16565568959334
493.0150216209355,559.40441751265507,590.5288966362582,631.79061780448978,673.16565568959334
493.0150216209355,559.40441751265507,590.5288966362582,631.79061780448978,673.16565568959334
493.0150216209355,559.40441751265507,590.5288966362582,631.79061780448978,673.16565568959334
493.0150216209355,559.40441751265507,590.5288966362582,631.79061780448978,673.16565568959334
493.0150216209355,559.40441751265507,590.5288966362582,631.79061780448978,673.03624616704246
493.0150216209355,559.40441751265507,590.5288966362582,631.79061780448978,673.26039003508424
493.0150216209355,559.40441751265507,590.5288966362582,631.79061780448978,673.26039003508424
493.0150216209355,559.40441751265507,590.5288966362582,631.79061780448978,673.26039003508424
493.0150216209355,559.40441751265507,590.5288966362582,631.79061780448978,673.26039003508424
493.0150216209355,559.40441751265507,590.5288966362582,631.79061780448978,673.26039003508424
493.0150216209355,559.40441751265507,590.5288966362582,631.79061780448978,673.26039003508424
493.0150216209355,559.40441751265507,590.5288966362582,631.79061780448978,674.09690633882167
493.0150216209355,559.40441751265507,590.5288966362582,631.79061780448978,674.09690633882167
493.0150216209355,559.40441751265507,590.5288966362582,631.79061780448978,674.09690633882167
493.0150216209355,559.40441751265507,590.5288966362582,631.79061780448978,674.09690633882167
493.0150216209355,559.40441751265507,590.5288966362582,631.79061780448978,674.57986925196633
493.0150216209355,559.40441751265507,590.5288966362582,631.79061780448978,674.57986925196633
493.0150216209355,559.40441751265507,590.5288966362582,631.79061780448978,674.57986925196633
493.0150216209355,559.40441751265507,590.5288966362582,631.79061780448978,674.09690633882167
493.0150216209355,559.40441751265507,590.5288966362582,631.79061780448978,673.26039003508424
493.0150216209355,559.40441751265507,590.5288966362582,631.79061780448978,673.03624616704246
493.0150216209355,559.40441751265507,590.5288966362582,631.47173959095699,673.16565568959334
493.0150216209355,559.40441751265507,590.5288966362582,631.50641476801695,673.16565568959334
493.0150216209355,559.40441751265507,590.5288966362582,630.7993079868304,673.16565568959334
493.0150216209355,559.40441751265507,590.5288966362582,630.57516411878851,673.16565568959334
493.0150216209355,559.40441751265507,590.5288966362582,629.03154103386453,672.68269277644868
493.0150216209355,559.40441751265507,590.5288966362582,627.74673699404332,671.84617647271114
493.0150216209355,559.40441751265507,590.5288966362582,627.29844925795862,671.62203260466924
493.0150216209355,559.40441751265507,590.5288966362582,626.59134247677207,671.75144212722023
493.0150216209355,559.40441751265507,590.5288966362582,625.40127278244086,671.75144212722023
493.0150216209355,559.40441751265507,590.5288966362582,624.6941660012543,671.75144212722023
493.0150216209355,559.40441751265507,590.5288966362582,624.6941660012543,671.75144212722023
493.0150216209355,559.40441751265507,590.5288966362582,624.6941660012543,671.26847921407557
493.0150216209355,559.40441751265507,590.5288966362582,624.6941660012543,670.43196291033803
493.0150216209355,559.40441751265507,590.5288966362582,624.6941660012543,670.20781904229625
493.0150216209355,559.40441751265507,590.5288966362582,624.6941660012543,670.33722856484712
493.0150216209355,559.40441751265507,590.5288966362582,624.6941660012543,670.33722856484712
493.0150216209355,559.40441751265507,590.5288966362582,624.6941660012543,670.33722856484712
493.0150216209355,559.40441751265507,590.5288966362582,624.6941660012543,670.33722856484712
493.0150216209355,559.40441751265507,590.5288966362582,624.6941660012543,670.33722856484712
493.0150216209355,559.40441751265507,590.5288966362582,624.6941660012543,670.33722856484712
493.0150216209355,559.40441751265507,590.5288966362582,624.6941660012543,670.33722856484712
493.0150216209355,559.40441751265507,590.5288966362582,624.6941660012543,670.33722856484712
493.0150216209355,559.40441751265507,590.5288966362582,624.6941660012543,670.33722856484712
493.0150216209355,559.40441751265507,590.5288966362582,624.6941660012543,670.33722856484712
493.0150216209355,559.40441751265507,590.5288966362582,624.6941660012543,670.33722856484712
493.0150216209355,559.40441751265507,590.5288966362582,624.6941660012543,670.33722856484712
493.0150216209355,559.40441751265507,590.5288966362582,624.6941660012543,670.33722856484712
493.0150216209355,559.40441751265507,590.5288966362582,624.6941660012543,670.33722856484712
493.0150216209355,559.40441751265507,590.5288966362582,624.6941660012543,670.33722856484712
493.0150216209355,559.40441751265507,590.5288966362582,624.6941660012543,670.33722856484712
493.0150216209355,559.40441751265507,590.5288966362582,624.6941660012543,670.33722856484712
493.0150216209355,559.40441751265507,590.5288966362582,624.6941660012543,670.33722856484712
493.0150216209355,559.40441751265507,590.5288966362582,624.6941660012543,670.33722856484712
493.0150216209355,559.40441751265507,590.5288966362582,624.6941660012543,670.33722856484712
493.0150216209355,559.40441751265507,590.5288966362582,624.6941660012543,670.33722856484712
493.0150216209355,559.40441751265507,590.5288966362582,624.6941660012543,670.33722856484712
493.0150216209355,559.40441751265507,590.5288966362582,624.6941660012543,670.33722856484712
493.0150216209355,559.40441751265507,590.5288966362582,624.6941660012543,670.33722856484712
493.0150216209355,559.40441751265507,590.5288966362582,624.6941660012543,670.33722856484712
504.10458625187641,583.5432719841906,591.10659389489388,625.88423569558552,670.33722856484712
505.36151673463246,590.5288966362582,592.16725406667319,626.59134247677207,670.33722856484712
503.67919294147055,591.10659389489388,593.48673328355528,627.29844925795862,670.20781904229625
503.67919294147055,591.10659389489388,593.48673328355528,627.29844925795862,670.43196291033803
503.67919294147055,591.10659389489388,593.48673328355528,627.29844925795862,670.43196291033803
503.67919294147055,591.10659389489388,593.48673328355528,627.29844925795862,670.43196291033803
503.67919294147055,591.10659389489388,593.48673328355528,627.29844925795862,670.43196291033803
503.67919294147055,591.10659389489388,593.48673328355528,627.29844925795862,670.43196291033803
503.67919294147055,591.10659389489388,593.48673328355528,627.29844925795862,671.26847921407557
503.67919294147055,591.10659389489388,593.48673328355528,627.29844925795862,671.75144212722023
503.67919294147055,591.10659389489388,593.48673328355528,627.29844925795862,671.75144212722023
503.67919294147055,591.10659389489388,593.48673328355528,627.29844925795862,671.26847921407557
503.67919294147055,591.10659389489388,593.48673328355528,627.29844925795862,670.43196291033803
503.67919294147055,591.10659389489388,593.48673328355528,627.29844925795862,670.43196291033803
503.67919294147055,591.10659389489388,593.48673328355528,627.29844925795862,670.43196291033803
503.67919294147055,591.10659389489388,593.48673328355528,627.29844925795862,670.43196291033803
503.67919294147055,591.10659389489388,593.48673328355528,627.29844925795862,670.43196291033803
503.67919294147055,591.10659389489388,593.48673328355528,627.29844925795862,670.43196291033803
503.67919294147055,591.10659389489388,593.48673328355528,627.29844925795862,670.43196291033803
503.67919294147055,591.10659389489388,593.48673328355528,627.29844925795862,670.43196291033803
503.67919294147055,591.10659389489388,593.48673328355528,627.29844925795862,670.43196291033803
503.67919294147055,591.10659389489388,593.48673328355528,627.29844925795862,670.43196291033803
503.67919294147055,591.10659389489388,593.48673328355528,627.29844925795862,670.43196291033803
503.67919294147055,591.10659389489388,593.48673328355528,627.29844925795862,670.43196291033803
503.67919294147055,591.10659389489388,593.48673328355528,627.29844925795862,670.43196291033803
503.67919294147055,591.10659389489388,593.48673328355528,627.29844925795862,670.43196291033803
503.67919294147055,591.10659389489388,593.48673328355528,627.29844925795862,670.43196291033803
503.67919294147055,591.10659389489388,593.48673328355528,627.29844925795862,670.43196291033803
503.67919294147055,591.10659389489388,593.48673328355528,627.29844925795862,670.43196291033803
503.67919294147055,591.10659389489388,593.48673328355528,627.29844925795862,670.43196291033803
503.67919294147055,591.10659389489388,593.48673328355528,627.29844925795862,670.43196291033803
503.67919294147055,591.10659389489388,593.48673328355528,627.29844925795862,670.43196291033803
503.67919294147055,591.10659389489388,593.48673328355528,627.29844925795862,670.43196291033803
503.67919294147055,591.10659389489388,593.48673328355528,627.29844925795862,670.43196291033803
503.67919294147055,591.10659389489388,593.48673328355528,627.29844925795862,670.43196291033803
503.67919294147055,591.10659389489388,593.48673328355528,627.29844925795862,670.43196291033803
503.67919294147055,591.10659389489388,593.48673328355528,627.29844925795862,670.43196291033803
503.67919294147055,591.10659389489388,593.48673328355528,627.29844925795862,670.43196291033803
503.67919294147055,591.10659389489388,593.48673328355528,627.29844925795862,670.43196291033803
503.67919294147055,591.10659389489388,593.48673328355528,627.29844925795862,670.43196291033803
503.67919294147055,591.10659389489388,593.48673328355528,627.29844925795862,670.43196291033803
503.67919294147055,591.10659389489388,593.48673328355528,627.29844925795862,670.43196291033803
503.67919294147055,591.10659389489388,593.48673328355528,627.29844925795862,670.43196291033803
503.67919294147055,591.10659389489388,593.48673328355528,627.29844925795862,670.43196291033803
503.67919294147055,591.10659389489388,593.48673328355528,627.29844925795862,670.43196291033803
503.67919294147055,591.10659389489388,593.48673328355528,627.29844925795862,670.43196291033803
503.67919294147055,591.10659389489388,593.48673328355528,627.29844925795862,670.43196291033803
503.67919294147055,591.10659389489388,593.48673328355528,627.29844925795862,670.43196291033803
503.67919294147055,591.10659389489388,593.48673328355528,627.29844925795862,670.43196291033803
503.67919294147055,591.10659389489388,593.48673328355528,627.29844925795862,670.43196291033803
503.67919294147055,591.10659389489388,593.48673328355528,627.29844925795862,671.26847921407557
503.67919294147055,591.10659389489388,593.48673328355528,627.29844925795862,671.75144212722023
503.67919294147055,591.10659389489388,593.48673328355528,627.39318360344953,671.75144212722023
503.67919294147055,591.10659389489388,593.48673328355528,628.93680668837362,671.75144212722023
503.67919294147055,591.10659389489388,593.48673328355528,630.12687638270484,671.62203260466924
503.67919294147055,591.10659389489388,593.48673328355528,630.83398316389139,671.84617647271114
505.10269768953071,590.5288966362582,592.16725406667319,630.83398316389139,671.84617647271114
505.10269768953071,590.5288966362582,592.16725406667319,630.83398316389139,671.84617647271114
505.10269768953071,590.5288966362582,592.16725406667319,631.67049946762882,671.84617647271114
505.10269768953071,590.5288966362582,592.16725406667319,632.0240528582226,672.68269277644868
505.10269768953071,590.5288966362582,592.16725406667319,632.2481967262645,673.16565568959334
505.10269768953071,590.5288966362582,592.16725406667319,633.08471303000192,673.16565568959334
505.10269768953071,590.5288966362582,592.16725406667319,633.43826642059571,673.16565568959334
505.10269768953071,590.5288966362582,592.16725406667319,633.6624102886376,673.16565568959334
505.10269768953071,590.5288966362582,592.16725406667319,634.36951706982416,673.03624616704246
505.10269768953071,590.5288966362582,592.16725406667319,634.81780480590874,673.26039003508424
505.10269768953071,590.5288966362582,592.16725406667319,636.10260884572995,674.09690633882167
505.10269768953071,590.5288966362582,592.16725406667319,638.25860436634969,674.45045972941546
505.10269768953071,590.5288966362582,592.16725406667319,639.09512067008814,674.67460359745735
505.10269768953071,590.5288966362582,591.77902549902046,639.31926453812991,675.51111990119477
505.10269768953071,591.10659389489388,593.2532982298244,639.89696179676559,675.99408281433944
505.10269768953071,590.94250919528292,596.75415695869617,640.82821244599393,675.99408281433944
505.10269768953071,592.77033531667962,601.9627234721039,642.37183553091802,675.99408281433944
505.10269768953071,596.75415695869617,606.59359272687686,643.43249570269836,675.99408281433944
505.10269768953071,601.9627234721039,609.77557324221675,644.49315587447768,675.99408281433944
505.10269768953071,604.66174107429811,612.95755375755584,645.81263509135977,675.86467329178856
505.10269768953071,604.72180024272905,616.39835331799759,646.16618848195355,676.08881715983034
505.10269768953071,605.26482232430374,619.00263657470191,646.39033234999533,676.92533346356788
505.10269768953071,605.23014714724377,621.38277596336343,647.22684865373287,677.40829637671254
505.10269768953071,605.23014714724377,621.25336644081244,647.70981156687753,677.40829637671254
505.10269768953071,605.23014714724377,621.25336644081244,647.58040204432666,677.40829637671254
505.10269768953071,605.23014714724377,621.25336644081244,647.80454591236855,677.27888685416167
505.10269768953071,605.23014714724377,621.25336644081244,648.64106221610598,677.50303072220356
505.10269768953071,605.23014714724377,621.25336644081244,648.99461560669977,678.33954702594099
505.10269768953071,605.23014714724377,621.25336644081244,649.21875947474155,678.82250993908565
505.10269768953071,605.23014714724377,621.25336644081244,650.05527577847909,678.82250993908565
505.10269768953071,605.23014714724377,621.25336644081244,650.40882916907287,678.69310041653478
505.10269768953071,605.23014714724377,621.25336644081244,650.40882916907287,678.91724428457655
505.10269768953071,605.23014714724377,621.25336644081244,650.40882916907287,679.75376058831409
505.10269768953071,605.23014714724377,621.25336644081244,650.40882916907287,680.10731397890788
505.10269768953071,605.23014714724377,621.25336644081244,650.40882916907287,680.33145784694977
505.10269768953071,605.23014714724377,621.25336644081244,650.40882916907287,681.1679741506872
505.10269768953071,605.23014714724377,621.25336644081244,650.40882916907287,681.65093706383186
505.10269768953071,605.23014714724377,621.25336644081244,650.40882916907287,681.65093706383186
505.10269768953071,605.23014714724377,621.25336644081244,650.40882916907287,681.65093706383186
505.10269768953071,605.23014714724377,621.25336644081244,650.40882916907287,681.52152754128088
505.10269768953071,605.23014714724377,621.25336644081244,650.40882916907287,681.74567140932277
505.10269768953071,605.23014714724377,621.25336644081244,650.40882916907287,682.58218771306019
505.10269768953071,605.23014714724377,621.25336644081244,650.40882916907287,682.93574110365398
505.10269768953071,605.23014714724377,621.25336644081244,650.40882916907287,683.15988497169587
505.10269768953071,605.23014714724377,621.25336644081244,650.40882916907287,683.99640127543341
505.10269768953071,605.23014714724377,621.25336644081244,650.40882916907287,684.47936418857807
505.10269768953071,605.23014714724377,621.25336644081244,650.40882916907287,684.09113562092534
505.10269768953071,605.23014714724377,621.25336644081244,650.40882916907287,684.63415770250003
505.10269768953071,605.23014714724377,621.25336644081244,650.40882916907287,687.10903143665234
505.10269768953071,605.23014714724377,621.25336644081244,650.40882916907287,689.58390517080579
505.10269768953071,605.23014714724377,621.25336644081244,650.40882916907287,691.92936938240723
505.10269768953071,605.23014714724377,621.25336644081244,650.40882916907287,691.92936938240723
505.10269768953071,605.23014714724377,621.25336644081244,650.40882916907287,691.92936938240723
505.10269768953071,605.23014714724377,621.25336644081244,650.40882916907287,691.92936938240723
505.10269768953071,605.23014714724377,621.25336644081244,650.40882916907287,691.92936938240723
505.10269768953071,605.23014714724377,621.25336644081244,650.40882916907287,691.92936938240723
505.10269768953071,605.23014714724377,621.25336644081244,650.40882916907287,691.92936938240723
505.10269768953071,605.23014714724377,621.25336644081244,650.40882916907287,691.92936938240723
505.10269768953071,605.23014714724377,621.25336644081244,650.40882916907287,691.92936938240723
505.10269768953071,605.23014714724377,621.25336644081244,650.40882916907287,691.92936938240723
505.10269768953071,605.23014714724377,621.25336644081244,650.40882916907287,691.92936938240723
505.10269768953071,605.23014714724377,621.25336644081244,650.40882916907287,691.92936938240723
505.10269768953071,605.23014714724377,621.25336644081244,650.40882916907287,691.92936938240723
505.10269768953071,605.23014714724377,621.25336644081244,650.40882916907287,691.92936938240723
505.10269768953071,605.23014714724377,621.25336644081244,650.40882916907287,691.92936938240723
505.10269768953071,605.23014714724377,621.25336644081244,650.40882916907287,691.92936938240723
505.10269768953071,605.23014714724377,621.25336644081244,650.40882916907287,691.92936938240723
505.10269768953071,605.23014714724377,621.25336644081244,650.40882916907287,691.92936938240723
505.10269768953071,605.23014714724377,621.25336644081244,650.40882916907287,691.92936938240723
505.10269768953071,605.23014714724377,621.25336644081244,650.40882916907287,691.92936938240723
505.10269768953071,605.23014714724377,621.25336644081244,650.40882916907287,691.92936938240723
505.10269768953071,605.23014714724377,621.25336644081244,650.40882916907287,691.92936938240723
505.10269768953071,605.23014714724377,621.25336644081244,650.40882916907287,691.92936938240723
505.10269768953071,605.23014714724377,621.25336644081244,650.40882916907287,691.92936938240723
505.10269768953071,605.23014714724377,621.25336644081244,650.40882916907287,691.92936938240723
505.10269768953071,605.23014714724377,621.25336644081244,650.40882916907287,691.92936938240723
505.10269768953071,605.23014714724377,621.25336644081244,650.40882916907287,691.92936938240723
505.10269768953071,605.23014714724377,621.25336644081244,650.40882916907287,691.92936938240723
505.10269768953071,605.23014714724377,621.25336644081244,650.63297303711477,691.92936938240723
505.10269768953071,605.23014714724377,621.25336644081244,651.34007981830121,691.92936938240723
505.10269768953071,605.23014714724377,621.25336644081244,652.04718659948776,691.92936938240723
505.10269768953071,605.23014714724377,621.25336644081244,652.88370290322518,691.92936938240723
505.10269768953071,605.23014714724377,621.25336644081244,653.23725629381897,691.92936938240723
505.10269768953071,605.23014714724377,621.25336644081244,653.33199063930999,691.92936938240723
505.10269768953071,605.23014714724377,621.25336644081244,654.39265081108931,691.92936938240723
505.10269768953071,605.23014714724377,621.25336644081244,655.7121300279714,691.92936938240723
505.10269768953071,605.23014714724377,621.25336644081244,656.19509294111617,691.92936938240723
505.10269768953071,605.23014714724377,621.25336644081244,656.06568341856519,691.92936938240723
505.10269768953071,605.23014714724377,621.25336644081244,656.16041776405621,691.92936938240723
505.10269768953071,605.23014714724377,621.25336644081244,657.22107793583541,691.92936938240723
505.10269768953071,605.23014714724377,621.25336644081244,657.22107793583541,691.92936938240723
505.10269768953071,605.23014714724377,621.25336644081244,657.22107793583541,691.92936938240723
505.10269768953071,605.23014714724377,621.25336644081244,657.22107793583541,689.58390517080579
505.10269768953071,605.23014714724377,621.25336644081244,657.22107793583541,688.07495726294178
505.10269768953071,605.23014714724377,621.25336644081244,657.22107793583541,686.30719030997489
505.10269768953071,605.23014714724377,621.25336644081244,657.22107793583541,684.53942335700901
505.10269768953071,605.23014714724377,621.25336644081244,657.22107793583541,684.22054514347622
505.10269768953071,605.23014714724377,621.25336644081244,657.22107793583541,684.47936418857807
505.10269768953071,605.23014714724377,621.25336644081244,657.22107793583541,684.47936418857807
505.10269768953071,605.23014714724377,621.25336644081244,657.22107793583541,684.47936418857807
517.76807101675354,615.62189618268917,623.15054291633032,658.41114763016662,684.47936418857807
560.86939905777012,621.25336644081244,624.43534695615244,659.11825441135329,684.22054514347622
589.62983159838871,623.15054291633032,626.07370438656744,659.95477071509072,684.53942335700901
597.01977762378397,624.43534695615244,628.45384377522896,660.17891458313363,686.43659983252576
597.01977762378397,624.43534695615244,628.45384377522896,660.6272023192173,688.10963244000175
597.01977762378397,624.43534695615244,628.45384377522896,660.6272023192173,688.8167392211883
597.01977762378397,624.43534695615244,628.45384377522896,660.6272023192173,689.39443647982387
597.01977762378397,624.43534695615244,628.45384377522896,660.6272023192173,690.32568712905231
597.01977762378397,624.43534695615244,628.45384377522896,660.6272023192173,691.73990069142542
597.01977762378397,624.43534695615244,628.45384377522896,660.6272023192173,693.15411425379853
597.01977762378397,624.43534695615244,628.45384377522896,660.6272023192173,694.56832781617163
597.01977762378397,624.43534695615244,628.45384377522896,660.6272023192173,695.98254137854474
597.01977762378397,624.43534695615244,628.45384377522896,660.6272023192173,697.5261644634686
597.01977762378397,624.43534695615244,628.45384377522896,660.6272023192173,697.65557398601959
597.01977762378397,624.43534695615244,628.45384377522896,660.6272023192173,695.0166155522553
597.01977762378397,624.43534695615244,628.45384377522896,660.6272023192173,692.89529520869655
597.01977762378397,624.43534695615244,628.45384377522896,660.6272023192173,692.70582651771474
597.01977762378397,624.43534695615244,628.45384377522896,660.40305845117541,691.99871973652716
597.01977762378397,624.43534695615244,628.45384377522896,660.5324679737264,690.32568712905231
597.01977762378397,624.43534695615244,628.45384377522896,660.30832410568451,689.39443647982387
597.01977762378397,624.43534695615244,628.45384377522896,659.95477071509072,688.8167392211883
597.01977762378397,624.43534695615244,628.45384377522896,659.95477071509072,688.10963244000175
597.01977762378397,624.43534695615244,628.45384377522896,659.95477071509072,686.43659983252576
597.01977762378397,624.43534695615244,628.45384377522896,659.95477071509072,684.53942335700901
597.01977762378397,624.43534695615244,628.45384377522896,659.11825441135329,684.22054514347622
597.01977762378397,624.43534695615244,628.45384377522896,658.8941105433114,684.47936418857807
597.01977762378397,624.43534695615244,628.45384377522896,658.54055715271761,684.47936418857807
597.01977762378397,624.43534695615244,628.45384377522896,657.70404084898018,683.99640127543341
597.01977762378397,624.43534695615244,628.45384377522896,657.70404084898018,683.15988497169587
597.01977762378397,624.43534695615244,628.45384377522896,657.70404084898018,682.93574110365398
597.01977762378397,624.43534695615244,628.45384377522896,657.70404084898018,682.93574110365398
597.01977762378397,624.43534695615244,628.45384377522896,657.70404084898018,682.93574110365398
597.01977762378397,624.43534695615244,628.45384377522896,657.70404084898018,682.93574110365398
597.01977762378397,624.43534695615244,628.45384377522896,657.70404084898018,682.93574110365398
597.01977762378397,624.43534695615244,628.45384377522896,657.70404084898018,682.93574110365398
597.01977762378397,624.43534695615244,628.45384377522896,657.70404084898018,682.93574110365398
597.01977762378397,624.43534695615244,628.45384377522896,657.70404084898018,682.93574110365398
597.01977762378397,624.43534695615244,628.45384377522896,657.70404084898018,682.93574110365398
597.01977762378397,624.43534695615244,628.45384377522896,657.70404084898018,682.93574110365398
597.01977762378397,624.43534695615244,628.45384377522896,657.47989698093829,683.06515062620497
547.88016838560441,623.15054291633032,626.07370438656744,657.60930650348928,682.58218771306019
504.21972545734616,621.25336644081244,624.43534695615244,657.60930650348928,681.74567140932277
502.84267663773107,615.62189618268917,623.15054291633032,657.1263435903445,681.52152754128088
502.84267663773107,603.78125840780967,621.25336644081244,656.28982728660708,681.65093706383186
502.84267663773107,603.78125840780967,621.25336644081244,656.06568341856519,681.65093706383186
502.84267663773107,603.78125840780967,621.25336644081244,656.06568341856519,681.65093706383186
502.84267663773107,603.78125840780967,621.25336644081244,656.06568341856519,681.65093706383186
502.84267663773107,603.78125840780967,621.25336644081244,656.06568341856519,681.1679741506872
502.84267663773107,603.78125840780967,621.25336644081244,656.06568341856519,680.33145784694977
502.84267663773107,603.78125840780967,621.25336644081244,656.06568341856519,680.10731397890788
502.84267663773107,603.78125840780967,621.25336644081244,656.06568341856519,679.75376058831409
502.84267663773107,603.78125840780967,621.25336644081244,656.06568341856519,680.23672350145875
502.84267663773107,603.78125840780967,621.25336644081244,656.28982728660708,680.10731397890788
502.84267663773107,603.78125840780967,621.25336644081244,657.1263435903445,680.33145784694977
502.84267663773107,603.78125840780967,621.25336644081244,657.60930650348928,681.1679741506872
502.84267663773107,603.78125840780967,621.25336644081244,657.60930650348928,681.65093706383186
502.84267663773107,603.78125840780967,621.25336644081244,657.47989698093829,681.65093706383186
502.84267663773107,603.78125840780967,621.25336644081244,657.70404084898018,681.65093706383186
502.84267663773107,603.78125840780967,621.25336644081244,658.54055715271761,681.65093706383186
502.84267663773107,603.78125840780967,621.25336644081244,658.8941105433114,681.52152754128088
502.84267663773107,603.78125840780967,621.25336644081244,659.11825441135329,681.74567140932277
502.84267663773107,603.78125840780967,620.95987221865062,659.95477071509072,682.58218771306019
502.84267663773107,603.52243936270781,623.52948029829304,660.43773362823549,683.06515062620497
502.84267663773107,603.90137674467155,628.67798764327074,660.43773362823549,682.93574110365398
502.84267663773107,604.79795221683901,630.7045736413404,660.30832410568451,683.15988497169587
502.84267663773107,604.66854269428813,631.63582429056885,660.5324679737264,683.99640127543341
502.84267663773107,604.76327703977904,633.05003785294207,661.36898427746382,684.47936418857807
502.84267663773107,604.85801138526995,634.33484189276408,661.8519471906086,684.47936418857807
502.84267663773107,604.85801138526995,634.39490106119501,661.72253766805761,684.47936418857807
502.84267663773107,604.85801138526995,634.67910409766785,661.9466815360995,684.22054514347622
502.84267663773107,604.30569811800626,640.59477739226111,662.78319783983693,684.53942335700901
502.84267663773107,605.26233275860466,646.45039151842536,663.13675123043072,686.43659983252576
502.84267663773107,605.67594531762836,649.44290334278344,663.3608950984725,688.10963244000175
502.84267663773107,605.67594531762836,649.66704721082533,664.19741140221004,688.68732969863731
502.84267663773107,605.67594531762836,649.66704721082533,664.6803743153547,689.61858034786576
502.84267663773107,605.67594531762836,649.66704721082533,664.55096479280382,691.16220343278974
502.84267663773107,605.67594531762836,649.66704721082533,664.77510866084572,692.48168264967194
502.84267663773107,605.67594531762836,649.66704721082533,664.77510866084572,692.70582651771474
502.84267663773107,605.67594531762836,649.66704721082533,665.61162496458314,692.89529520869655
502.84267663773107,605.67594531762836,649.66704721082533,665.61162496458314,695.0166155522553
502.84267663773107,605.67594531762836,649.66704721082533,665.61162496458314,697.65557398601959
502.84267663773107,605.67594531762836,649.66704721082533,665.61162496458314,698.49209028975804
502.84267663773107,605.67594531762836,649.66704721082533,665.61162496458314,698.71623415779982
502.84267663773107,605.67594531762836,649.66704721082533,665.61162496458314,699.55275046153747
502.84267663773107,605.67594531762836,649.66704721082533,665.61162496458314,699.90630385213115
502.84267663773107,605.67594531762836,649.66704721082533,665.61162496458314,700.13044772017304
502.84267663773107,605.67594531762836,649.66704721082533,665.61162496458314,700.96696402391046
502.84267663773107,605.67594531762836,649.66704721082533,665.61162496458314,700.96696402391046
502.84267663773107,605.67594531762836,649.66704721082533,665.61162496458314,700.96696402391046
502.84267663773107,605.67594531762836,649.66704721082533,664.77510866084572,700.96696402391046
502.84267663773107,605.48647662664644,646.80394490901915,664.55096479280382,700.96696402391046
502.84267663773107,603.9521447274135,640.94833078285387,664.19741140221004,700.96696402391046
502.84267663773107,603.41841383152791,630.68599126995946,663.3608950984725,700.96696402391046
502.84267663773107,602.75527341309134,619.91530485255134,663.13675123043072,700.96696402391046
502.84267663773107,603.21285233486401,612.560034004214,662.78319783983693,700.96696402391046
502.84267663773107,603.0233836438822,609.25793515201303,661.9466815360995,700.96696402391046
502.84267663773107,599.93613747403413,608.04248146631096,661.72253766805761,700.96696402391046
502.84267663773107,598.20304569812924,605.92116112275039,661.8519471906086,700.96696402391046
502.84267663773107,597.66002361655364,602.35095203975754,661.36898427746382,700.96696402391046
502.84267663773107,595.05574035985023,600.134897350708,660.5324679737264,700.96696402391046
502.84267663773107,592.71027614824879,598.14298652969831,660.30832410568451,700.96696402391046
502.84267663773107,591.20132824038478,595.05574035985023,660.43773362823549,700.96696402391046
502.84267663773107,591.20132824038478,594.51271827827554,659.95477071509072,700.96696402391046
502.84267663773107,591.33073776293566,594.06443054219085,659.11825441135329,700.96696402391046
502.84267663773107,591.33073776293566,594.06443054219085,658.8941105433114,700.96696402391046
502.84267663773107,591.33073776293566,594.06443054219085,659.02352006586227,700.96696402391046
502.84267663773107,591.33073776293566,594.06443054219085,658.54055715271761,700.96696402391046
502.84267663773107,591.33073776293566,594.06443054219085,657.70404084898018,700.96696402391046
502.84267663773107,591.33073776293566,594.06443054219085,657.47989698093829,700.96696402391046
502.84267663773107,591.33073776293566,594.06443054219085,657.60930650348928,700.96696402391046
502.84267663773107,591.33073776293566,594.06443054219085,657.60930650348928,700.96696402391046
502.84267663773107,591.33073776293566,594.06443054219085,657.1263435903445,700.96696402391046
502.84267663773107,591.33073776293566,594.06443054219085,656.28982728660708,700.13044772017304
502.84267663773107,591.33073776293566,594.06443054219085,656.06568341856519,699.90630385213115
502.84267663773107,591.33073776293566,594.06443054219085,655.22916711482674,700.03571337468213
502.84267663773107,591.33073776293566,594.06443054219085,653.55613450735177,699.55275046153747
502.84267663773107,591.33073776293566,594.06443054219085,652.62488385812344,698.71623415779982
502.84267663773107,591.33073776293566,594.06443054219085,652.04718659948776,697.5261644634686
502.84267663773107,591.33073776293566,594.06443054219085,651.34007981830121,695.0166155522553
502.84267663773107,591.33073776293566,594.06443054219085,649.66704721082533,692.89529520869655
502.84267663773107,591.33073776293566,594.06443054219085,647.28690782216381,692.22286360457008
502.84267663773107,591.33073776293566,594.06443054219085,646.13151330489359,691.16220343278974
502.84267663773107,591.33073776293566,594.06443054219085,646.13151330489359,689.61858034786576
502.84267663773107,591.33073776293566,594.06443054219085,646.13151330489359,688.20436678549265
502.84267663773107,591.33073776293566,594.06443054219085,646.13151330489359,686.30719030997489
502.84267663773107,591.33073776293566,594.06443054219085,646.13151330489359,684.53942335700901
502.84267663773107,591.33073776293566,594.06443054219085,646.13151330489359,684.22054514347622
502.84267663773107,591.33073776293566,594.06443054219085,646.13151330489359,684.47936418857807
502.84267663773107,591.33073776293566,594.06443054219085,646.13151330489359,683.99640127543341
502.84267663773107,591.33073776293566,594.06443054219085,646.13151330489359,682.67692205855121
502.84267663773107,591.33073776293566,594.06443054219085,646.13151330489359,681.61626188677178
502.84267663773107,591.33073776293566,594.06443054219085,646.13151330489359,681.03856462813621
502.84267663773107,591.33073776293566,594.06443054219085,646.13151330489359,680.33145784694977
502.84267663773107,591.33073776293566,594.06443054219085,646.13151330489359,680.10731397890788
502.84267663773107,591.33073776293566,594.06443054219085,646.13151330489359,679.75376058831409
502.84267663773107,591.33073776293566,594.06443054219085,646.13151330489359,678.91724428457655
502.84267663773107,591.33073776293566,594.06443054219085,646.13151330489359,678.69310041653478
502.84267663773107,591.33073776293566,594.06443054219085,646.13151330489359,678.33954702594099
502.84267663773107,591.33073776293566,594.06443054219085,646.13151330489359,678.33954702594099
502.84267663773107,591.33073776293566,594.06443054219085,646.13151330489359,678.33954702594099
502.84267663773107,591.33073776293566,594.06443054219085,646.13151330489359,678.33954702594099
502.84267663773107,591.33073776293566,594.06443054219085,646.13151330489359,678.33954702594099
502.84267663773107,591.33073776293566,594.06443054219085,646.13151330489359,678.33954702594099
502.84267663773107,591.33073776293566,594.06443054219085,646.13151330489359,678.33954702594099
502.84267663773107,591.33073776293566,594.06443054219085,646.13151330489359,678.33954702594099
502.84267663773107,591.33073776293566,594.06443054219085,646.13151330489359,678.33954702594099
502.84267663773107,591.33073776293566,594.06443054219085,646.13151330489359,678.33954702594099
502.84267663773107,591.33073776293566,594.06443054219085,646.13151330489359,678.33954702594099
502.84267663773107,591.33073776293566,594.06443054219085,646.13151330489359,678.33954702594099
502.84267663773107,591.33073776293566,594.06443054219085,646.13151330489359,678.33954702594099
501.28976236712003,592.87436084785963,594.90094684592839,647.4163173447148,678.82250993908565
501.28976236712003,592.87436084785963,594.90094684592839,649.57231286533442,678.69310041653478
501.28976236712003,592.87436084785963,594.90094684592839,649.44290334278344,678.91724428457655
501.28976236712003,592.87436084785963,594.90094684592839,649.44290334278344,678.91724428457655
501.28976236712003,592.87436084785963,594.90094684592839,649.44290334278344,678.91724428457655
501.28976236712003,592.87436084785963,594.90094684592839,649.44290334278344,678.91724428457655
501.28976236712003,592.87436084785963,594.90094684592839,649.44290334278344,678.91724428457655
501.28976236712003,592.87436084785963,594.90094684592839,649.44290334278344,678.69310041653478
501.28976236712003,592.87436084785963,594.90094684592839,649.44290334278344,678.82250993908565
501.28976236712003,592.87436084785963,594.90094684592839,649.44290334278344,678.33954702594099
501.28976236712003,592.87436084785963,594.90094684592839,649.44290334278344,677.50303072220356
501.28976236712003,592.87436084785963,594.90094684592839,649.44290334278344,677.27888685416167
501.28976236712003,592.87436084785963,594.90094684592839,649.44290334278344,677.40829637671254
501.28976236712003,592.87436084785963,594.90094684592839,649.44290334278344,677.40829637671254
501.28976236712003,592.87436084785963,594.90094684592839,649.44290334278344,677.40829637671254
501.28976236712003,592.87436084785963,594.90094684592839,649.44290334278344,677.40829637671254
501.28976236712003,592.87436084785963,594.90094684592839,649.44290334278344,677.40829637671254
501.28976236712003,592.87436084785963,594.90094684592839,649.44290334278344,677.40829637671254
501.28976236712003,592.87436084785963,594.90094684592839,649.44290334278344,677.40829637671254
501.28976236712003,592.87436084785963,594.90094684592839,649.44290334278344,677.40829637671254
501.28976236712003,592.87436084785963,594.90094684592839,649.44290334278344,677.40829637671254
501.28976236712003,592.87436084785963,594.90094684592839,649.44290334278344,677.40829637671254
501.28976236712003,592.87436084785963,594.90094684592839,649.44290334278344,677.40829637671254
501.28976236712003,592.87436084785963,594.90094684592839,649.44290334278344,677.40829637671254
501.28976236712003,592.87436084785963,594.90094684592839,649.44290334278344,677.40829637671254
501.28976236712003,592.87436084785963,594.90094684592839,649.44290334278344,677.40829637671254
501.28976236712003,592.87436084785963,594.90094684592839,649.44290334278344,677.40829637671254
501.28976236712003,592.87436084785963,594.90094684592839,649.44290334278344,677.40829637671254
501.28976236712003,592.87436084785963,594.90094684592839,649.44290334278344,677.40829637671254
500.27555812378682,591.33073776293566,594.06443054219085,647.4163173447148,676.92533346356788
494.8267549366534,575.42763680622181,592.87436084785963,646.13151330489359,676.08881715983034
494.8267549366534,547.46904539229058,591.33073776293566,645.68322556880889,675.86467329178856
494.8267549366534,547.46904539229058,591.33073776293566,644.49315587447768,675.99408281433944
494.8267549366534,547.46904539229058,591.33073776293566,644.49315587447768,675.99408281433944
494.8267549366534,547.46904539229058,591.33073776293566,644.49315587447768,675.99408281433944
494.8267549366534,547.46904539229058,591.33073776293566,644.49315587447768,675.99408281433944
494.8267549366534,547.46904539229058,591.33073776293566,644.49315587447768,675.99408281433944
494.8267549366534,547.46904539229058,591.33073776293566,644.49315587447768,675.99408281433944
494.8267549366534,547.46904539229058,591.33073776293566,644.49315587447768,675.99408281433944
494.8267549366534,547.46904539229058,591.33073776293566,644.49315587447768,675.99408281433944
494.8267549366534,547.46904539229058,591.33073776293566,644.49315587447768,675.99408281433944
494.8267549366534,547.46904539229058,591.33073776293566,644.49315587447768,675.99408281433944
494.8267549366534,547.46904539229058,591.33073776293566,644.49315587447768,675.99408281433944
494.8267549366534,547.46904539229058,591.33073776293566,644.49315587447768,675.99408281433944
494.8267549366534,547.46904539229058,591.33073776293566,644.49315587447768,675.99408281433944
494.8267549366534,547.46904539229058,591.33073776293566,644.49315587447768,675.99408281433944
494.8267549366534,547.46904539229058,591.33073776293566,644.49315587447768,675.99408281433944
494.8267549366534,547.46904539229058,591.33073776293566,644.49315587447768,675.99408281433944
494.8267549366534,547.46904539229058,591.33073776293566,644.49315587447768,675.99408281433944
494.8267549366534,547.46904539229058,591.33073776293566,644.49315587447768,675.99408281433944
494.8267549366534,547.46904539229058,591.33073776293566,644.49315587447768,675.99408281433944
494.8267549366534,547.46904539229058,591.33073776293566,644.49315587447768,675.99408281433944
494.8267549366534,547.46904539229058,591.33073776293566,644.49315587447768,675.99408281433944
494.8267549366534,547.46904539229058,591.33073776293566,644.49315587447768,675.99408281433944
494.8267549366534,547.46904539229058,591.33073776293566,644.49315587447768,675.99408281433944
494.8267549366534,547.46904539229058,591.33073776293566,644.49315587447768,675.99408281433944
494.8267549366534,547.46904539229058,591.33073776293566,644.49315587447768,675.99408281433944
494.8267549366534,547.46904539229058,591.33073776293566,644.49315587447768,675.99408281433944
494.8267549366534,547.46904539229058,591.33073776293566,644.49315587447768,675.86467329178856
494.8267549366534,547.46904539229058,591.33073776293566,644.49315587447768,676.08881715983034
494.8267549366534,547.46904539229058,591.33073776293566,644.49315587447768,676.92533346356788
494.8267549366534,547.46904539229058,591.33073776293566,644.49315587447768,677.40829637671254
494.8267549366534,547.46904539229058,591.33073776293566,644.49315587447768,677.40829637671254
494.8267549366534,547.46904539229058,591.33073776293566,644.49315587447768,677.40829637671254
494.8267549366534,547.46904539229058,591.33073776293566,644.49315587447768,677.40829637671254
494.8267549366534,547.46904539229058,591.33073776293566,644.49315587447768,677.40829637671254
494.8267549366534,547.46904539229058,591.33073776293566,644.49315587447768,677.40829637671254
494.8267549366534,547.46904539229058,591.33073776293566,644.49315587447768,677.27888685416167
494.8267549366534,547.46904539229058,591.33073776293566,644.49315587447768,677.50303072220356
494.8267549366534,547.46904539229058,591.33073776293566,644.49315587447768,678.33954702594099
494.8267549366534,547.46904539229058,591.33073776293566,644.49315587447768,678.82250993908565
494.8267549366534,547.46904539229058,591.33073776293566,644.49315587447768,678.69310041653478
494.8267549366534,547.46904539229058,591.33073776293566,644.49315587447768,678.91724428457655
494.8267549366534,547.46904539229058,591.33073776293566,644.49315587447768,679.75376058831409
494.8267549366534,547.46904539229058,591.33073776293566,644.49315587447768,680.10731397890788
494.8267549366534,547.46904539229058,591.33073776293566,644.49315587447768,680.33145784694977
494.8267549366534,547.46904539229058,591.33073776293566,644.49315587447768,681.1679741506872
494.8267549366534,547.46904539229058,591.33073776293566,644.49315587447768,681.1679741506872
494.8267549366534,547.46904539229058,591.33073776293566,644.49315587447768,681.1679741506872
494.8267549366534,547.46904539229058,591.33073776293566,644.26901200643579,681.1679741506872
494.8267549366534,547.46904539229058,591.33073776293566,643.07894231210457,681.1679741506872
494.8267549366534,547.46904539229058,591.33073776293566,641.53531922718048,681.1679741506872
494.8267549366534,547.46904539229058,591.33073776293566,640.60406857795215,681.1679741506872
