timestamp,raw_value,wavelet_value
datetime,int,float
T,,
2015-10-27 17:18:34.542124,567,808.65781021911334
2015-10-27 17:18:34.557709,564,482.85923019614324
2015-10-27 17:18:34.557884,560,484.37558416143389
2015-10-27 17:18:34.558013,557,485.89193812672448
2015-10-27 17:18:34.573955,560,487.40829209201513
2015-10-27 17:18:34.574125,564,488.92464605730572
2015-10-27 17:18:34.574205,571,490.44100002259637
2015-10-27 17:18:34.574272,578,491.95735398788696
2015-10-27 17:18:34.589979,583,493.47370795317761
2015-10-27 17:18:34.590120,584,494.9900619184682
2015-10-27 17:18:34.590228,580,496.50641588375879
2015-10-27 17:18:34.605846,577,498.0227698490495
2015-10-27 17:18:34.605938,576,499.53912381434009
2015-10-27 17:18:34.606006,576,501.05547777963068
2015-10-27 17:18:34.621846,571,502.57183174492127
2015-10-27 17:18:34.621938,568,504.08818571021197
2015-10-27 17:18:34.622006,563,505.60453967550256
2015-10-27 17:18:34.637841,561,507.12089364079316
2015-10-27 17:18:34.637934,559,508.63724760608375
2015-10-27 17:18:34.638002,557,510.15360157137445
2015-10-27 17:18:34.653839,555,511.66995553666504
2015-10-27 17:18:34.653932,555,513.18630950195563
2015-10-27 17:18:34.654000,552,514.70266346724623
2015-10-27 17:18:34.669779,550,516.21901743253693
2015-10-27 17:18:34.669871,552,517.73537139782752
2015-10-27 17:18:34.669940,549,519.25172536311811
2015-10-27 17:18:34.685828,547,520.7680793284087
2015-10-27 17:18:34.685922,548,522.28443329369929
2015-10-27 17:18:34.685990,560,523.80078725899
2015-10-27 17:18:34.701861,591,525.31714122428059
2015-10-27 17:18:34.701954,653,526.83349518957118
2015-10-27 17:18:34.702022,743,528.34984915486177
2015-10-27 17:18:34.717733,823,529.86620312015248
2015-10-27 17:18:34.717829,889,531.38255708544307
2015-10-27 17:18:34.717898,786,532.89891105073366
2015-10-27 17:18:34.733722,557,534.41526501602425
2015-10-27 17:18:34.733819,415,535.5848828186198
2015-10-27 17:18:34.733888,415,536.4601968754248
2015-10-27 17:18:34.749785,463,537.34327550358296
2015-10-27 17:18:34.749881,492,538.226354131741
2015-10-27 17:18:34.749950,510,539.10943275989916
2015-10-27 17:18:34.765665,519,539.99251138805721
2015-10-27 17:18:34.765889,522,540.87559001621537
2015-10-27 17:18:34.766122,525,541.75866864437353
2015-10-27 17:18:34.781610,528,542.64174727253157
2015-10-27 17:18:34.781721,530,543.52482590068973
2015-10-27 17:18:34.781790,533,544.40790452884778
2015-10-27 17:18:34.797603,535,545.29098315700594
2015-10-27 17:18:34.797715,536,546.17406178516399
2015-10-27 17:18:34.797785,535,547.05714041332214
2015-10-27 17:18:34.813643,534,547.9402190414803
2015-10-27 17:18:34.813839,537,548.82329766963835
2015-10-27 17:18:34.813996,540,549.70637629779651
2015-10-27 17:18:34.814071,540,550.58945492595456
2015-10-27 17:18:34.829639,544,551.47253355411272
2015-10-27 17:18:34.829731,553,552.35561218227076
2015-10-27 17:18:34.829800,556,553.23869081042892
2015-10-27 17:18:34.845691,553,554.12176943858697
2015-10-27 17:18:34.845810,546,555.00484806674513
2015-10-27 17:18:34.845881,542,555.88792669490329
2015-10-27 17:18:34.861774,538,556.77100532306133
2015-10-27 17:18:34.861867,537,557.65408395121949
2015-10-27 17:18:34.861935,540,558.53716257937754
2015-10-27 17:18:34.877641,543,559.4202412075357
2015-10-27 17:18:34.877734,546,560.30331983569374
2015-10-27 17:18:34.877803,549,561.1863984638519
2015-10-27 17:18:34.893625,552,562.06947709200995
2015-10-27 17:18:34.893719,556,562.95255572016811
2015-10-27 17:18:34.893787,561,563.83563434832627
2015-10-27 17:18:34.909908,564,564.71871297648431
2015-10-27 17:18:34.910062,567,565.60179160464236
2015-10-27 17:18:34.910195,575,566.48487023280052
2015-10-27 17:18:34.925704,579,567.36794886095856
2015-10-27 17:18:34.925830,581,568.25102748911672
2015-10-27 17:18:34.925898,574,569.13410611727477
2015-10-27 17:18:34.941602,575,570.01718474543281
2015-10-27 17:18:34.941696,583,570.90026337359097
2015-10-27 17:18:34.941792,585,571.78334200174902
2015-10-27 17:18:34.957534,578,572.66642062990718
2015-10-27 17:18:34.957609,567,573.54335063805127
2015-10-27 17:18:34.957704,564,574.42028064619558
2015-10-27 17:18:34.973527,568,575.29721065433978
2015-10-27 17:18:34.973599,569,576.17414066248409
2015-10-27 17:18:34.973646,555,577.05107067062829
2015-10-27 17:18:34.989552,540,577.92800067877272
2015-10-27 17:18:34.989650,534,578.80493068691703
2015-10-27 17:18:34.989721,531,579.68186069506123
2015-10-27 17:18:35.005559,529,580.55879070320555
2015-10-27 17:18:35.005658,521,581.43572071134986
2015-10-27 17:18:35.005727,518,582.31265071949406
2015-10-27 17:18:35.021617,521,583.18958072763837
2015-10-27 17:18:35.021730,514,584.06651073578269
2015-10-27 17:18:35.021800,498,584.943440743927
2015-10-27 17:18:35.037605,487,585.82684122819876
2015-10-27 17:18:35.037717,493,586.71024171247052
2015-10-27 17:18:35.037788,500,587.59364219674228
2015-10-27 17:18:35.053580,496,588.47704268101404
2015-10-27 17:18:35.053693,493,589.36044316528603
2015-10-27 17:18:35.053762,494,590.24384364955779
2015-10-27 17:18:35.053827,496,591.12724413382955
2015-10-27 17:18:35.069688,496,592.01064461810131
2015-10-27 17:18:35.069781,495,591.37769113708248
2015-10-27 17:18:35.069856,485,590.74732584651474
2015-10-27 17:18:35.085598,483,590.11954874639798
2015-10-27 17:18:35.085691,491,589.49177164628111
2015-10-27 17:18:35.085742,498,588.86399454616435
2015-10-27 17:18:35.101640,491,588.2362174460477
2015-10-27 17:18:35.101734,481,587.61102853638192
2015-10-27 17:18:35.101802,484,586.98583962671603
2015-10-27 17:18:35.117621,494,586.36065071705025
2015-10-27 17:18:35.117726,504,585.73546180738458
2015-10-27 17:18:35.117794,506,585.1102728977188
2015-10-27 17:18:35.133629,493,584.48508398805313
2015-10-27 17:18:35.133723,493,583.85989507838724
2015-10-27 17:18:35.133792,508,583.23470616872146
2015-10-27 17:18:35.149608,523,582.60951725905568
2015-10-27 17:18:35.149702,532,581.98432834939001
2015-10-27 17:18:35.149770,533,581.35913943972423
2015-10-27 17:18:35.165543,537,580.73395053005834
2015-10-27 17:18:35.165612,547,580.10876162039256
2015-10-27 17:18:35.165658,546,579.48357271072689
2015-10-27 17:18:35.181665,547,578.85838380106111
2015-10-27 17:18:35.182064,558,578.23319489139521
2015-10-27 17:18:35.182192,571,577.60800598172943
2015-10-27 17:18:35.197582,596,576.98281707206365
2015-10-27 17:18:35.197675,618,576.35762816239787
2015-10-27 17:18:35.197742,618,575.73243925273198
2015-10-27 17:18:35.213563,597,575.1072503430662
2015-10-27 17:18:35.213669,584,574.4820614334003
2015-10-27 17:18:35.213739,581,573.85687252373441
2015-10-27 17:18:35.229540,572,573.23168361406863
2015-10-27 17:18:35.229650,556,572.60649470440262
2015-10-27 17:18:35.229736,543,571.98130579473684
2015-10-27 17:18:35.245536,534,571.35611688507106
2015-10-27 17:18:35.245633,528,570.73092797540505
2015-10-27 17:18:35.245702,521,570.10573906573927
2015-10-27 17:18:35.261499,521,569.82728631876864
2015-10-27 17:18:35.261612,540,569.84313731758834
2015-10-27 17:18:35.261682,563,569.85122374505499
2015-10-27 17:18:35.277529,581,569.85931017252165
2015-10-27 17:18:35.277640,590,569.86739659998841
2015-10-27 17:18:35.277711,585,569.87548302745495
2015-10-27 17:18:35.293525,566,569.88356945492171
2015-10-27 17:18:35.293635,550,569.89165588238836
2015-10-27 17:18:35.293705,542,569.89974230985501
2015-10-27 17:18:35.293770,546,569.90782873732167
2015-10-27 17:18:35.309595,550,569.91591516478832
2015-10-27 17:18:35.309812,542,569.92400159225497
2015-10-27 17:18:35.309892,528,569.93208801972162
2015-10-27 17:18:35.325593,517,569.94017444718827
2015-10-27 17:18:35.325686,505,569.94826087465492
2015-10-27 17:18:35.325754,499,569.95634730212169
2015-10-27 17:18:35.341570,511,569.96443372958834
2015-10-27 17:18:35.341855,520,569.9725201570551
2015-10-27 17:18:35.342017,500,569.98060658452175
2015-10-27 17:18:35.357522,473,569.99904577379266
2015-10-27 17:18:35.357600,461,570.02594303795763
2015-10-27 17:18:35.357656,465,570.0528403021226
2015-10-27 17:18:35.373668,472,570.07973756628769
2015-10-27 17:18:35.373762,469,570.10663483045278
2015-10-27 17:18:35.373832,465,570.13353209461775
2015-10-27 17:18:35.389513,462,570.16172345400832
2015-10-27 17:18:35.389606,463,570.1899148133989
2015-10-27 17:18:35.389732,458,570.21267595197378
2015-10-27 17:18:35.405619,459,570.23802528099964
2015-10-27 17:18:35.405715,467,570.26337461002549
2015-10-27 17:18:35.405784,479,570.28872393905124
2015-10-27 17:18:35.421523,500,570.31407326807721
2015-10-27 17:18:35.421617,526,570.33942259710307
2015-10-27 17:18:35.421687,535,570.36477192612892
2015-10-27 17:18:35.437683,526,570.39012125515478
2015-10-27 17:18:35.437785,506,570.41547058418064
2015-10-27 17:18:35.437855,487,570.4408199132065
2015-10-27 17:18:35.453518,476,570.46616924223235
2015-10-27 17:18:35.453617,474,570.4915185712581
2015-10-27 17:18:35.453685,469,570.51686790028407
2015-10-27 17:18:35.469532,461,570.54221722930993
2015-10-27 17:18:35.469630,455,570.56213633751997
2015-10-27 17:18:35.469699,457,570.58334954095562
2015-10-27 17:18:35.485588,461,570.61071136440512
2015-10-27 17:18:35.485684,459,570.63807318785473
2015-10-27 17:18:35.485752,464,570.66543501130423
2015-10-27 17:18:35.501476,469,570.69279683475372
2015-10-27 17:18:35.501588,474,570.72015865820322
2015-10-27 17:18:35.501659,470,570.74752048165283
2015-10-27 17:18:35.517472,462,570.77488230510232
2015-10-27 17:18:35.517683,462,570.80224412855182
2015-10-27 17:18:35.517897,478,570.82960595200132
2015-10-27 17:18:35.533509,504,570.85696777545081
2015-10-27 17:18:35.533621,552,570.88432959890042
2015-10-27 17:18:35.533691,644,570.9116914223498
2015-10-27 17:18:35.549428,738,570.93905324579941
2015-10-27 17:18:35.549540,824,570.96641506924891
2015-10-27 17:18:35.549610,777,570.98730641657085
2015-10-27 17:18:35.549674,562,571.00819776389289
2015-10-27 17:18:35.565501,390,570.82127902616287
2015-10-27 17:18:35.565595,370,570.38040243889009
2015-10-27 17:18:35.565665,418,569.93952585161719
2015-10-27 17:18:35.581571,449,569.49864926434441
2015-10-27 17:18:35.581665,465,569.05777267707151
2015-10-27 17:18:35.581733,465,568.61689608979862
2015-10-27 17:18:35.597491,461,568.17601950252572
2015-10-27 17:18:35.597583,459,567.73255472480196
2015-10-27 17:18:35.597652,470,567.2865017566271
2015-10-27 17:18:35.613515,483,566.84044878845214
2015-10-27 17:18:35.613606,486,566.39439582027717
2015-10-27 17:18:35.613673,486,565.94834285210231
2015-10-27 17:18:35.629493,485,565.49970169347637
2015-10-27 17:18:35.629586,486,565.05106053485042
2015-10-27 17:18:35.629681,485,564.60241937622447
2015-10-27 17:18:35.645442,480,564.15377821759841
2015-10-27 17:18:35.645511,484,563.70513705897247
2015-10-27 17:18:35.645585,498,563.25649590034652
2015-10-27 17:18:35.661550,509,562.80785474172058
2015-10-27 17:18:35.661644,507,562.35921358309452
2015-10-27 17:18:35.661714,493,561.91057242446857
2015-10-27 17:18:35.677584,484,561.46193126584262
2015-10-27 17:18:35.677677,485,561.01329010721656
2015-10-27 17:18:35.677745,493,560.56464894859062
2015-10-27 17:18:35.693451,497,560.11600778996467
2015-10-27 17:18:35.693544,498,559.66736663133872
2015-10-27 17:18:35.693613,501,559.21872547271266
2015-10-27 17:18:35.709606,516,558.77008431408683
2015-10-27 17:18:35.709747,533,558.32144315546077
2015-10-27 17:18:35.709911,544,557.87280199683482
2015-10-27 17:18:35.725627,546,557.42416083820888
2015-10-27 17:18:35.725724,544,556.97551967958293
2015-10-27 17:18:35.725793,548,556.52687852095687
2015-10-27 17:18:35.741588,550,556.07823736233092
2015-10-27 17:18:35.741686,545,555.62959620370498
2015-10-27 17:18:35.741755,542,555.18095504507903
2015-10-27 17:18:35.757506,549,554.73231388645308
2015-10-27 17:18:35.757620,559,554.28367272782714
2015-10-27 17:18:35.757690,559,553.83503156920119
2015-10-27 17:18:35.773487,553,553.38639041057525
2015-10-27 17:18:35.773601,559,552.93774925194919
2015-10-27 17:18:35.773670,567,552.48522580764666
2015-10-27 17:18:35.789565,567,551.99930972739469
2015-10-27 17:18:35.789678,556,551.51339364714261
2015-10-27 17:18:35.789748,542,551.02747756689064
2015-10-27 17:18:35.789814,537,550.54156148663856
2015-10-27 17:18:35.805451,537,550.05564540638647
2015-10-27 17:18:35.805543,537,549.56972932613451
2015-10-27 17:18:35.805611,547,549.08381324588242
2015-10-27 17:18:35.821541,553,548.59789716563046
2015-10-27 17:18:35.821633,542,548.11198108537837
2015-10-27 17:18:35.821701,530,547.62606500512629
2015-10-27 17:18:35.837697,533,547.14014892487421
2015-10-27 17:18:35.837791,536,546.65423284462224
2015-10-27 17:18:35.837858,528,546.16831676437016
2015-10-27 17:18:35.853686,508,545.68240068411819
2015-10-27 17:18:35.853806,500,545.19648460386611
2015-10-27 17:18:35.853875,502,544.71056852361403
2015-10-27 17:18:35.869590,497,544.22465244336206
2015-10-27 17:18:35.869683,496,543.73873636310998
2015-10-27 17:18:35.869752,509,543.24246752105387
2015-10-27 17:18:35.885673,509,542.73774060410346
2015-10-27 17:18:35.885790,505,542.23301368715306
2015-10-27 17:18:35.885859,516,541.72828677020266
2015-10-27 17:18:35.901651,521,541.22355985325237
2015-10-27 17:18:35.901775,512,540.71883293630196
2015-10-27 17:18:35.901874,510,540.21281192412607
2015-10-27 17:18:35.917424,513,539.70679091195018
2015-10-27 17:18:35.917607,509,539.20620012058998
2015-10-27 17:18:35.917683,496,538.70302113877892
2015-10-27 17:18:35.935161,488,538.19984215696775
2015-10-27 17:18:35.935271,491,537.69666317515657
2015-10-27 17:18:35.935355,494,537.1934841933454
2015-10-27 17:18:35.949489,504,536.69030521153422
2015-10-27 17:18:35.949594,507,536.18712622972305
2015-10-27 17:18:35.949666,501,535.68394724791187
2015-10-27 17:18:35.965315,492,535.1807682661007
2015-10-27 17:18:35.965432,493,534.67758928428964
2015-10-27 17:18:35.965508,493,534.17441030247846
2015-10-27 17:18:35.981383,495,533.67123132066729
2015-10-27 17:18:35.981442,514,533.16805233885611
2015-10-27 17:18:35.981481,532,532.66487335704505
2015-10-27 17:18:35.997309,525,532.16712459604969
2015-10-27 17:18:35.997381,513,531.66808173982884
2015-10-27 17:18:35.997424,514,531.16903888360787
2015-10-27 17:18:36.013438,526,530.66999602738701
2015-10-27 17:18:36.013549,527,530.17095317116616
2015-10-27 17:18:36.013619,519,529.67191031494531
2015-10-27 17:18:36.029324,514,529.17286745872434
2015-10-27 17:18:36.029457,520,528.67382460250349
2015-10-27 17:18:36.029680,521,528.17478174628263
2015-10-27 17:18:36.029766,509,527.67573889006167
2015-10-27 17:18:36.045328,500,527.17669603384081
2015-10-27 17:18:36.045384,499,526.67765317761996
2015-10-27 17:18:36.045423,506,526.17861032139899
2015-10-27 17:18:36.061297,518,525.67956746517825
2015-10-27 17:18:36.061355,531,525.18052460895728
2015-10-27 17:18:36.061413,534,524.68148175273643
2015-10-27 17:18:36.077430,533,524.18243889651558
2015-10-27 17:18:36.077500,536,523.68339604029461
2015-10-27 17:18:36.077550,535,523.39216326912572
2015-10-27 17:18:36.093378,525,523.35488834749958
2015-10-27 17:18:36.093511,514,523.31761342587356
2015-10-27 17:18:36.093583,506,523.28033850424754
2015-10-27 17:18:36.109268,505,523.24306358262152
2015-10-27 17:18:36.109323,500,523.20578866099538
2015-10-27 17:18:36.109362,493,523.16851373936936
2015-10-27 17:18:36.125331,484,523.13123881774334
2015-10-27 17:18:36.125386,484,523.09396389611732
2015-10-27 17:18:36.125424,489,523.05668897449118
2015-10-27 17:18:36.141298,483,523.01941405286516
2015-10-27 17:18:36.141392,479,522.98213913123914
2015-10-27 17:18:36.141469,484,522.944864209613
2015-10-27 17:18:36.157284,497,522.90758928798698
2015-10-27 17:18:36.157341,505,522.87031436636096
2015-10-27 17:18:36.157379,506,522.83303944473494
2015-10-27 17:18:36.173371,509,522.7957645231088
2015-10-27 17:18:36.173428,506,522.75848960148278
2015-10-27 17:18:36.173466,498,522.72121467985676
2015-10-27 17:18:36.189268,496,522.68393975823074
2015-10-27 17:18:36.189364,491,522.6466648366046
2015-10-27 17:18:36.189435,480,522.60938991497858
2015-10-27 17:18:36.205289,475,522.57211499335256
2015-10-27 17:18:36.205397,480,522.53484007172653
2015-10-27 17:18:36.205486,482,522.4975651501004
2015-10-27 17:18:36.221412,486,522.46029022847438
2015-10-27 17:18:36.221508,491,522.42301530684836
2015-10-27 17:18:36.221577,490,522.38574038522233
2015-10-27 17:18:36.237570,486,522.3484654635962
2015-10-27 17:18:36.237739,480,522.31119054197018
2015-10-27 17:18:36.237810,478,522.27391562034416
2015-10-27 17:18:36.253424,477,522.23664069871813
2015-10-27 17:18:36.253536,476,522.199365777092
2015-10-27 17:18:36.253606,473,522.16209085546598
2015-10-27 17:18:36.269242,471,522.12481593383995
2015-10-27 17:18:36.269353,468,522.08754101221382
2015-10-27 17:18:36.269456,467,522.0502660905878
2015-10-27 17:18:36.269525,465,522.01299116896178
2015-10-27 17:18:36.285328,465,521.97571624733575
2015-10-27 17:18:36.285422,464,521.93844132570962
2015-10-27 17:18:36.285492,462,521.9011664040836
2015-10-27 17:18:36.301472,463,521.86777376813404
2015-10-27 17:18:36.301565,462,521.86777376813404
2015-10-27 17:18:36.301633,462,521.86777376813404
2015-10-27 17:18:36.317292,462,521.86777376813404
2015-10-27 17:18:36.317398,461,521.86777376813404
2015-10-27 17:18:36.317513,466,521.86777376813404
2015-10-27 17:18:36.333285,484,521.86777376813404
2015-10-27 17:18:36.333348,511,521.86777376813404
2015-10-27 17:18:36.333382,554,521.86777376813404
2015-10-27 17:18:36.349259,611,521.86777376813404
2015-10-27 17:18:36.349336,663,521.86777376813404
2015-10-27 17:18:36.349414,686,521.86777376813404
2015-10-27 17:18:36.365442,597,521.86777376813404
2015-10-27 17:18:36.365534,409,521.88771777200111
2015-10-27 17:18:36.365603,311,521.42446991846691
2015-10-27 17:18:36.381422,320,520.52272294874024
2015-10-27 17:18:36.381516,366,519.63789212880204
2015-10-27 17:18:36.381585,394,518.75306130886395
2015-10-27 17:18:36.397270,418,517.86823048892575
2015-10-27 17:18:36.397432,432,516.98339966898766
2015-10-27 17:18:36.397624,440,516.09856884904946
2015-10-27 17:18:36.413328,442,515.21373802911137
2015-10-27 17:18:36.413481,447,514.32890720917317
2015-10-27 17:18:36.413599,449,513.44407638923508
2015-10-27 17:18:36.429475,448,512.55924556929688
2015-10-27 17:18:36.429572,448,511.67441474935879
2015-10-27 17:18:36.429649,449,510.78958392942059
2015-10-27 17:18:36.445255,451,509.9047531094825
2015-10-27 17:18:36.445350,452,509.01992228954441
2015-10-27 17:18:36.445420,454,508.13509146960621
2015-10-27 17:18:36.461449,455,507.25026064966812
2015-10-27 17:18:36.461606,453,506.36542982972992
2015-10-27 17:18:36.461701,452,505.48059900979183
2015-10-27 17:18:36.477475,452,504.59576818985363
2015-10-27 17:18:36.477609,454,503.71093736991554
2015-10-27 17:18:36.477679,456,502.82610654997734
2015-10-27 17:18:36.493437,455,501.94127573003925
2015-10-27 17:18:36.493603,454,501.05644491010105
2015-10-27 17:18:36.493674,454,500.17161409016296
2015-10-27 17:18:36.509336,454,499.28678327022476
2015-10-27 17:18:36.509448,456,498.40195245028667
2015-10-27 17:18:36.509517,457,497.51712163034847
2015-10-27 17:18:36.525316,455,496.63229081041038
2015-10-27 17:18:36.525428,456,495.74745999047218
2015-10-27 17:18:36.525498,458,494.86262917053409
2015-10-27 17:18:36.525564,459,493.97779835059589
2015-10-27 17:18:36.541282,461,493.0929675306578
2015-10-27 17:18:36.541374,464,492.20813671071966
2015-10-27 17:18:36.541442,466,491.32330589078151
2015-10-27 17:18:36.557383,468,490.43847507084337
2015-10-27 17:18:36.557476,472,489.55364425090522
2015-10-27 17:18:36.557545,476,488.66881343096708
2015-10-27 17:18:36.573254,476,487.78398261102899
2015-10-27 17:18:36.573350,474,486.89915179109084
2015-10-27 17:18:36.573418,470,486.0143209711527
2015-10-27 17:18:36.589345,466,485.12949015121455
2015-10-27 17:18:36.589437,461,484.24465933127641
2015-10-27 17:18:36.589505,455,483.35982851133826
2015-10-27 17:18:36.605226,446,482.47499769140018
2015-10-27 17:18:36.605319,443,481.59016687146203
2015-10-27 17:18:36.605398,439,480.67427776611163
2015-10-27 17:18:36.621290,433,479.75838866076128
2015-10-27 17:18:36.621384,425,478.84249955541094
2015-10-27 17:18:36.621452,419,477.92661045006054
2015-10-27 17:18:36.637222,414,477.01072134471019
2015-10-27 17:18:36.637299,405,476.09483223935985
2015-10-27 17:18:36.637355,397,475.1789431340095
2015-10-27 17:18:36.653143,392,474.26564221911008
2015-10-27 17:18:36.653227,387,473.35881178033833
2015-10-27 17:18:36.653263,382,472.45845181769408
2015-10-27 17:18:36.669184,379,471.56197414072642
2015-10-27 17:18:36.669401,375,470.67067284466066
2015-10-27 17:18:36.669578,369,469.78713611994806
2015-10-27 17:18:36.685175,366,468.90748168091199
2015-10-27 17:18:36.685334,364,468.02334436451503
2015-10-27 17:18:36.685459,364,467.1417952385691
2015-10-27 17:18:36.701359,360,466.25128035790152
2015-10-27 17:18:36.701456,360,465.36594185813595
2015-10-27 17:18:36.701525,361,464.48060335837039
2015-10-27 17:18:36.717250,361,463.59526485860482
2015-10-27 17:18:36.717347,361,462.70992635883925
2015-10-27 17:18:36.717416,360,461.82458785907369
2015-10-27 17:18:36.733238,359,460.93700792062765
2015-10-27 17:18:36.733352,362,460.04942798218167
2015-10-27 17:18:36.733420,366,459.16184804373569
2015-10-27 17:18:36.749327,369,458.27426810528971
2015-10-27 17:18:36.749554,371,457.38668816684367
2015-10-27 17:18:36.749679,372,456.49910822839769
2015-10-27 17:18:36.765263,373,455.61152828995171
2015-10-27 17:18:36.765374,375,454.72394835150567
2015-10-27 17:18:36.765444,377,453.83636841305969
2015-10-27 17:18:36.765509,377,452.94878847461371
2015-10-27 17:18:36.781225,376,452.06120853616773
2015-10-27 17:18:36.781320,376,451.17362859772169
2015-10-27 17:18:36.781389,375,450.28604865927571
2015-10-27 17:18:36.797099,375,449.39846872082973
2015-10-27 17:18:36.797154,376,448.51088878238374
2015-10-27 17:18:36.797193,375,447.62330884393771
2015-10-27 17:18:36.813322,376,446.73572890549173
2015-10-27 17:18:36.813414,375,445.84814896704574
2015-10-27 17:18:36.813483,372,444.96056902859971
2015-10-27 17:18:36.829432,371,444.07298909015373
2015-10-27 17:18:36.829526,369,443.18540915170774
2015-10-27 17:18:36.829594,367,442.29782921326176
2015-10-27 17:18:36.845319,367,441.41024927481573
2015-10-27 17:18:36.845412,367,440.52266933636974
2015-10-27 17:18:36.845480,366,439.63508939792376
2015-10-27 17:18:36.861342,365,438.74750945947773
2015-10-27 17:18:36.861434,363,437.85992952103175
2015-10-27 17:18:36.861502,363,436.97234958258576
2015-10-27 17:18:36.877357,364,436.08476964413978
2015-10-27 17:18:36.877510,363,435.19718970569386
2015-10-27 17:18:36.877588,362,434.30960976724799
2015-10-27 17:18:36.893349,363,433.40208582493494
2015-10-27 17:18:36.893444,363,432.97775374002327
2015-10-27 17:18:36.893513,360,432.99192077130385
2015-10-27 17:18:36.909110,358,432.98822430934121
2015-10-27 17:18:36.909205,359,432.98452784737844
2015-10-27 17:18:36.909275,359,432.98083138541574
2015-10-27 17:18:36.925107,360,432.97713492345298
2015-10-27 17:18:36.925203,360,432.97343846149033
2015-10-27 17:18:36.925273,358,432.97103609475312
2015-10-27 17:18:36.941653,357,432.96639228933549
2015-10-27 17:18:36.941821,356,432.96080114046293
2015-10-27 17:18:36.941952,357,432.95520999159049
2015-10-27 17:18:36.957040,360,432.94961884271794
2015-10-27 17:18:36.957106,360,432.94402769384544
2015-10-27 17:18:36.957153,358,432.93843654497289
2015-10-27 17:18:36.972999,358,432.93284539610039
2015-10-27 17:18:36.973145,358,432.92725424722784
2015-10-27 17:18:36.973200,358,432.92166309835534
2015-10-27 17:18:36.989009,357,432.91607194948278
2015-10-27 17:18:36.989090,356,432.91177489583583
2015-10-27 17:18:36.989138,356,432.90747784218883
2015-10-27 17:18:37.005029,355,432.90093934986152
2015-10-27 17:18:37.005158,359,432.89440085753409
2015-10-27 17:18:37.005230,368,432.88786236520662
2015-10-27 17:18:37.005296,376,432.88132387287925
2015-10-27 17:18:37.021091,380,432.87478538055188
2015-10-27 17:18:37.021206,378,432.86824688822441
2015-10-27 17:18:37.021299,375,432.86170839589704
2015-10-27 17:18:37.037056,374,432.85516990356956
2015-10-27 17:18:37.037110,376,432.8486314112422
2015-10-27 17:18:37.037148,374,432.84209291891472
2015-10-27 17:18:37.053378,371,432.83555442658729
2015-10-27 17:18:37.053472,368,432.82901593425981
2015-10-27 17:18:37.053539,367,432.82247744193239
2015-10-27 17:18:37.069323,367,432.81593894960486
2015-10-27 17:18:37.069417,367,432.80940045727738
2015-10-27 17:18:37.069485,370,432.80286196494984
2015-10-27 17:18:37.085344,370,432.79632347262242
2015-10-27 17:18:37.085437,370,432.78978498029488
2015-10-27 17:18:37.085505,370,432.7832464879674
2015-10-27 17:18:37.101178,371,432.77670799563998
2015-10-27 17:18:37.101268,371,432.7701695033125
2015-10-27 17:18:37.101335,372,432.76363101098497
2015-10-27 17:18:37.117268,378,432.75709251865754
2015-10-27 17:18:37.117415,391,432.75055402633006
2015-10-27 17:18:37.117525,409,432.74401553400253
2015-10-27 17:18:37.133109,441,432.73747704167511
2015-10-27 17:18:37.133202,492,432.76199683475988
2015-10-27 17:18:37.133270,549,432.78651662784455
2015-10-27 17:18:37.149334,593,432.81103642092933
2015-10-27 17:18:37.149455,559,432.8355562140141
2015-10-27 17:18:37.149524,424,432.86007600709877
2015-10-27 17:18:37.165287,285,432.60658271684036
2015-10-27 17:18:37.165383,255,432.01582669843589
2015-10-27 17:18:37.165452,292,431.39154201168196
2015-10-27 17:18:37.181168,326,430.76078684880059
2015-10-27 17:18:37.181279,351,430.1235612097916
2015-10-27 17:18:37.181350,368,429.48245328510609
2015-10-27 17:18:37.197046,379,428.83616897951862
2015-10-27 17:18:37.197160,386,428.18212010257804
2015-10-27 17:18:37.197247,392,427.52418893996088
2015-10-27 17:18:37.213019,399,426.87074065470466
2015-10-27 17:18:37.213152,401,426.21470417899735
2015-10-27 17:18:37.213196,402,425.56763345801181
2015-10-27 17:18:37.229059,402,424.91538635612409
2015-10-27 17:18:37.229239,405,424.26313925423648
2015-10-27 17:18:37.229367,409,423.61089215234887
2015-10-27 17:18:37.244979,413,422.9586450504612
2015-10-27 17:18:37.245050,416,422.30639794857359
2015-10-27 17:18:37.245092,417,421.65639228536639
2015-10-27 17:18:37.245131,420,421.0063866221592
2015-10-27 17:18:37.261139,420,420.356380958952
2015-10-27 17:18:37.261234,421,419.70637529574481
2015-10-27 17:18:37.261302,426,419.05636963253755
2015-10-27 17:18:37.277266,426,418.40636396933036
2015-10-27 17:18:37.277409,432,417.75635830612316
2015-10-27 17:18:37.277505,433,417.10635264291591
2015-10-27 17:18:37.293362,437,416.45634697970871
2015-10-27 17:18:37.293454,440,415.80634131650152
2015-10-27 17:18:37.293523,442,415.15633565329432
2015-10-27 17:18:37.309198,445,414.50632999008712
2015-10-27 17:18:37.309293,448,413.85632432687993
2015-10-27 17:18:37.309361,454,413.20631866367268
2015-10-27 17:18:37.325092,460,412.55631300046542
2015-10-27 17:18:37.325186,464,411.90630733725811
2015-10-27 17:18:37.325255,469,411.2563016740508
2015-10-27 17:18:37.341179,474,410.60629601084361
2015-10-27 17:18:37.341340,479,409.95629034763624
2015-10-27 17:18:37.341467,484,409.30628468442899
2015-10-27 17:18:37.357316,487,408.65627902122174
2015-10-27 17:18:37.357435,488,408.00627335801448
2015-10-27 17:18:37.357504,487,407.35626769480717
2015-10-27 17:18:37.373048,489,406.70626203159992
2015-10-27 17:18:37.373144,488,406.05625636839267
2015-10-27 17:18:37.373213,486,405.4062507051853
2015-10-27 17:18:37.389064,485,404.75624504197799
2015-10-27 17:18:37.389213,481,404.10623937877079
2015-10-27 17:18:37.389340,479,403.45623371556343
2015-10-27 17:18:37.405128,478,402.80622805235623
2015-10-27 17:18:37.405224,475,402.15622238914892
2015-10-27 17:18:37.405293,472,401.50621672594167
2015-10-27 17:18:37.421204,470,400.84456420570473
2015-10-27 17:18:37.421337,466,400.17514711411485
2015-10-27 17:18:37.421406,462,399.50667736597978
2015-10-27 17:18:37.437125,462,398.83820761784477
2015-10-27 17:18:37.437223,460,398.16973786970982
2015-10-27 17:18:37.437292,458,397.5012681215747
2015-10-27 17:18:37.453221,456,396.83279837343969
2015-10-27 17:18:37.453384,451,396.16303453007919
2015-10-27 17:18:37.453453,451,395.49551212539899
2015-10-27 17:18:37.469195,452,394.82893706417383
2015-10-27 17:18:37.469333,451,394.16236200294861
2015-10-27 17:18:37.469404,452,393.49578694172334
2015-10-27 17:18:37.485164,452,392.82921188049818
2015-10-27 17:18:37.485282,450,392.16263681927296
2015-10-27 17:18:37.485353,450,391.4960617580478
2015-10-27 17:18:37.485418,453,390.82948669682258
2015-10-27 17:18:37.501312,453,390.16291163559742
2015-10-27 17:18:37.501405,456,389.49633657437221
2015-10-27 17:18:37.501474,457,388.8284674179215
2015-10-27 17:18:37.517150,460,388.16059826147091
2015-10-27 17:18:37.517254,463,387.49497054370062
2015-10-27 17:18:37.517321,468,386.82934282593044
2015-10-27 17:18:37.533333,471,386.16371510816026
2015-10-27 17:18:37.533427,474,385.49808739039003
2015-10-27 17:18:37.533496,476,384.83245967261985
2015-10-27 17:18:37.549221,481,384.16683195484956
2015-10-27 17:18:37.549314,484,383.50120423707938
2015-10-27 17:18:37.549382,488,382.83557651930914
2015-10-27 17:18:37.565207,491,382.16994880153896
2015-10-27 17:18:37.565300,493,381.50432108376867
2015-10-27 17:18:37.565369,494,380.83869336599849
2015-10-27 17:18:37.580995,495,380.17306564822832
2015-10-27 17:18:37.581088,497,379.50743793045808
2015-10-27 17:18:37.581157,498,378.84181021268785
2015-10-27 17:18:37.597292,497,378.17618249491761
2015-10-27 17:18:37.597445,500,377.51055477714743
2015-10-27 17:18:37.597527,503,376.84492705937714
2015-10-27 17:18:37.613294,504,376.17929934160696
2015-10-27 17:18:37.613439,505,375.51367162383673
2015-10-27 17:18:37.613524,505,374.84804390606655
2015-10-27 17:18:37.629160,507,374.18241618829626
2015-10-27 17:18:37.629254,507,373.51678847052608
2015-10-27 17:18:37.629322,505,372.85116075275585
2015-10-27 17:18:37.644968,503,372.18553303498567
2015-10-27 17:18:37.645062,505,371.51990531721549
2015-10-27 17:18:37.645130,508,370.8542775994452
2015-10-27 17:18:37.661185,508,370.18864988167502
2015-10-27 17:18:37.661283,509,369.52302216390478
2015-10-27 17:18:37.661351,509,368.85739444613461
2015-10-27 17:18:37.677126,510,368.19176672836431
2015-10-27 17:18:37.677264,510,367.52613901059414
2015-10-27 17:18:37.677335,511,367.13852437616708
2015-10-27 17:18:37.692941,513,367.08817246988605
2015-10-27 17:18:37.693060,515,367.06876104150342
2015-10-27 17:18:37.693143,515,367.0493496131208
2015-10-27 17:18:37.708891,517,367.02993818473817
2015-10-27 17:18:37.709003,520,367.01052675635555
2015-10-27 17:18:37.709073,520,366.99111532797292
2015-10-27 17:18:37.724879,521,366.97170389959024
2015-10-27 17:18:37.724990,522,366.95229247120756
2015-10-27 17:18:37.725060,522,366.93288104282499
2015-10-27 17:18:37.740896,523,366.91346961444231
2015-10-27 17:18:37.741072,525,366.89405818605962
2015-10-27 17:18:37.741204,528,366.874646757677
2015-10-27 17:18:37.741464,527,366.85523532929437
2015-10-27 17:18:37.756918,525,366.83582390091175
2015-10-27 17:18:37.757024,522,366.81641247252907
2015-10-27 17:18:37.757093,524,366.79700104414638
2015-10-27 17:18:37.773085,528,366.77758961576382
2015-10-27 17:18:37.773178,529,366.75817818738113
2015-10-27 17:18:37.773246,532,366.73876675899851
2015-10-27 17:18:37.788928,539,366.71935533061583
2015-10-27 17:18:37.789021,549,366.6999439022332
2015-10-27 17:18:37.789089,553,366.68053247385058
2015-10-27 17:18:37.804902,550,366.66112104546789
2015-10-27 17:18:37.804997,545,366.64170961708521
2015-10-27 17:18:37.805066,545,366.62229818870264
2015-10-27 17:18:37.820924,546,366.60288676031996
2015-10-27 17:18:37.821018,546,366.58347533193734
2015-10-27 17:18:37.821087,544,366.56406390355471
2015-10-27 17:18:37.837070,542,366.54465247517209
2015-10-27 17:18:37.837162,542,366.5252410467894
2015-10-27 17:18:37.837231,542,366.50582961840678
2015-10-27 17:18:37.852904,542,366.48641819002415
2015-10-27 17:18:37.853000,543,366.46700676164153
2015-10-27 17:18:37.853069,545,366.4475953332589
2015-10-27 17:18:37.869137,548,366.42818390487622
2015-10-27 17:18:37.869262,547,366.40877247649365
2015-10-27 17:18:37.869331,547,366.38936104811097
2015-10-27 17:18:37.885211,548,366.36994961972829
2015-10-27 17:18:37.885378,548,366.35053819134572
2015-10-27 17:18:37.885505,554,366.33112676296304
2015-10-27 17:18:37.900976,564,366.31171533458041
2015-10-27 17:18:37.901072,585,366.29230390619779
2015-10-27 17:18:37.901142,620,366.27289247781511
2015-10-27 17:18:37.916933,668,366.25348104943248
2015-10-27 17:18:37.917063,721,366.23406962104985
2015-10-27 17:18:37.917136,761,366.21465819266723
2015-10-27 17:18:37.933085,710,366.19524676428455
2015-10-27 17:18:37.933211,566,366.17583533590198
2015-10-27 17:18:37.933280,452,366.16807076454893
2015-10-27 17:18:37.948989,437,366.16807076454893
2015-10-27 17:18:37.949158,476,366.16807076454893
2015-10-27 17:18:37.949231,506,366.16807076454893
2015-10-27 17:18:37.965029,528,366.16807076454893
2015-10-27 17:18:37.965142,543,366.16807076454893
2015-10-27 17:18:37.965212,554,366.16807076454893
2015-10-27 17:18:37.980833,559,366.16807076454893
2015-10-27 17:18:37.980947,562,366.16807076454893
2015-10-27 17:18:37.981017,566,366.16807076454893
2015-10-27 17:18:37.981084,567,366.16807076454893
2015-10-27 17:18:37.997150,568,366.16807076454893
2015-10-27 17:18:37.997256,569,366.16807076454893
2015-10-27 17:18:37.997324,570,366.16807076454893
2015-10-27 17:18:38.013109,572,366.16807076454893
2015-10-27 17:18:38.013201,573,366.16807076454893
2015-10-27 17:18:38.013269,574,366.16807076454893
2015-10-27 17:18:38.029040,576,366.16807076454893
2015-10-27 17:18:38.029134,578,366.16807076454893
2015-10-27 17:18:38.029202,579,366.16807076454893
2015-10-27 17:18:38.045091,579,366.16807076454893
2015-10-27 17:18:38.045185,580,366.16807076454893
2015-10-27 17:18:38.045253,581,366.16807076454893
2015-10-27 17:18:38.060880,584,366.16807076454893
2015-10-27 17:18:38.060946,586,366.16807076454893
2015-10-27 17:18:38.060993,588,366.16807076454893
2015-10-27 17:18:38.077142,591,366.16807076454893
2015-10-27 17:18:38.077237,595,366.16807076454893
2015-10-27 17:18:38.077321,598,366.16807076454893
2015-10-27 17:18:38.092993,599,366.16807076454893
2015-10-27 17:18:38.093087,600,366.16807076454893
2015-10-27 17:18:38.093155,601,366.16807076454893
2015-10-27 17:18:38.108899,606,366.16807076454893
2015-10-27 17:18:38.108993,611,366.16807076454893
2015-10-27 17:18:38.109063,615,366.16807076454893
2015-10-27 17:18:38.124947,619,366.16807076454893
2015-10-27 17:18:38.125043,621,366.16807076454893
2015-10-27 17:18:38.125111,623,366.16807076454893
2015-10-27 17:18:38.140913,623,366.16807076454893
2015-10-27 17:18:38.141011,622,366.16807076454893
2015-10-27 17:18:38.141080,621,366.16807076454893
2015-10-27 17:18:38.156791,618,366.16807076454893
2015-10-27 17:18:38.156893,614,366.16807076454893
2015-10-27 17:18:38.156974,611,366.16807076454893
2015-10-27 17:18:38.173028,608,366.16807076454893
2015-10-27 17:18:38.173161,605,366.16807076454893
2015-10-27 17:18:38.173231,601,366.16807076454893
2015-10-27 17:18:38.188947,597,366.16807076454893
2015-10-27 17:18:38.189151,594,366.16807076454893
2015-10-27 17:18:38.189267,589,366.16807076454893
2015-10-27 17:18:38.204788,584,366.16807076454893
2015-10-27 17:18:38.204977,580,366.27048344030703
2015-10-27 17:18:38.205064,577,366.87004428537625
2015-10-27 17:18:38.221021,573,367.86681100693556
2015-10-27 17:18:38.221140,569,369.14212338732244
2015-10-27 17:18:38.221210,566,370.59948175576488
2015-10-27 17:18:38.221277,565,372.17291215141881
2015-10-27 17:18:38.236978,564,373.84344280952905
2015-10-27 17:18:38.237071,563,375.60469616582486
2015-10-27 17:18:38.237140,562,377.41872869079606
2015-10-27 17:18:38.253068,561,379.24690335139098
2015-10-27 17:18:38.253162,559,381.08145557625653
2015-10-27 17:18:38.253230,558,382.94489266405384
2015-10-27 17:18:38.269079,558,384.86136276044022
2015-10-27 17:18:38.269174,559,386.83604224631756
2015-10-27 17:18:38.269243,559,388.85349489083666
2015-10-27 17:18:38.284910,560,390.90052590182881
2015-10-27 17:18:38.285003,563,392.97618793583899
2015-10-27 17:18:38.285071,565,395.06210981979643
2015-10-27 17:18:38.300990,568,397.16760406019318
2015-10-27 17:18:38.301083,569,399.31198917355533
2015-10-27 17:18:38.301151,572,401.49267696943173
2015-10-27 17:18:38.317053,575,403.72062080131082
2015-10-27 17:18:38.317146,577,405.9948733257375
2015-10-27 17:18:38.317215,579,408.30353384576864
2015-10-27 17:18:38.332934,581,410.63564900791579
2015-10-27 17:18:38.333034,583,412.99346025085947
2015-10-27 17:18:38.333103,586,415.37084385024252
2015-10-27 17:18:38.348837,588,417.77745906432801
2015-10-27 17:18:38.348931,590,420.21365264488639
2015-10-27 17:18:38.349000,591,422.66528245629405
2015-10-27 17:18:38.364801,592,425.11691226770165
2015-10-27 17:18:38.364893,593,427.56854207910925
2015-10-27 17:18:38.364961,592,430.02017189051691
2015-10-27 17:18:38.380964,592,432.47180170192451
2015-10-27 17:18:38.381060,590,434.9234315133321
2015-10-27 17:18:38.381129,589,437.37506132473976
2015-10-27 17:18:38.396907,588,439.82669113614736
2015-10-27 17:18:38.397015,587,442.27832094755496
2015-10-27 17:18:38.397142,586,444.72995075896262
2015-10-27 17:18:38.412849,585,447.18158057037022
2015-10-27 17:18:38.412947,585,449.63321038177787
2015-10-27 17:18:38.413017,584,452.08484019318547
2015-10-27 17:18:38.428707,582,454.53647000459307
2015-10-27 17:18:38.428891,582,456.98809981600073
2015-10-27 17:18:38.429027,582,459.43972962740833
2015-10-27 17:18:38.444634,584,461.89135943881593
2015-10-27 17:18:38.444751,584,464.34298925022358
2015-10-27 17:18:38.444859,583,466.79461906163118
2015-10-27 17:18:38.460621,581,469.24624887303878
2015-10-27 17:18:38.460690,580,471.69787868444644
2015-10-27 17:18:38.460731,581,474.14950849585404
2015-10-27 17:18:38.460780,583,476.60113830726164
2015-10-27 17:18:38.476840,584,479.05276811866929
2015-10-27 17:18:38.477020,582,481.50439793007689
2015-10-27 17:18:38.477107,581,483.95602774148455
2015-10-27 17:18:38.492660,581,486.40765755289215
2015-10-27 17:18:38.492729,581,488.85928736429975
2015-10-27 17:18:38.492779,582,491.3109171757074
2015-10-27 17:18:38.508674,580,493.762546987115
2015-10-27 17:18:38.508739,581,496.21288270329728
2015-10-27 17:18:38.508787,582,498.66321841947945
2015-10-27 17:18:38.524628,581,501.11355413566162
2015-10-27 17:18:38.524684,581,503.56707863397912
2015-10-27 17:18:38.524723,581,506.03957489705169
2015-10-27 17:18:38.540753,581,508.5081888744478
2015-10-27 17:18:38.540844,581,510.98223307265971
2015-10-27 17:18:38.540912,582,513.45463642387563
2015-10-27 17:18:38.556664,582,515.92988180545603
2015-10-27 17:18:38.556720,583,518.40538102695018
2015-10-27 17:18:38.556758,583,520.88820515616999
2015-10-27 17:18:38.572763,582,523.37387131575451
2015-10-27 17:18:38.572820,583,525.86367360092925
2015-10-27 17:18:38.572859,582,528.35795876346492
2015-10-27 17:18:38.588657,582,530.84577344987292
2015-10-27 17:18:38.588767,582,533.32970585060434
2015-10-27 17:18:38.588826,581,535.80846187043392
2015-10-27 17:18:38.604835,582,538.2833356045868
2015-10-27 17:18:38.604952,583,540.7556211482887
2015-10-27 17:18:38.605119,583,543.22661259676511
2015-10-27 17:18:38.620836,580,545.69630995001603
2015-10-27 17:18:38.620986,577,548.16341911281586
2015-10-27 17:18:38.621119,576,550.63052827561569
2015-10-27 17:18:38.636848,578,553.09763743841552
2015-10-27 17:18:38.636946,583,555.56086431553877
2015-10-27 17:18:38.637015,591,558.02020890698554
2015-10-27 17:18:38.652805,598,560.47955349843244
2015-10-27 17:18:38.652901,601,562.93889808987922
2015-10-27 17:18:38.652970,599,565.398242681326
2015-10-27 17:18:38.668791,595,567.85758727277278
2015-10-27 17:18:38.668903,593,570.31693186421955
2015-10-27 17:18:38.668972,592,572.77627645566645
2015-10-27 17:18:38.684733,589,575.23562104711323
2015-10-27 17:18:38.684811,586,577.69237744810903
2015-10-27 17:18:38.684886,584,580.14783975387934
2015-10-27 17:18:38.700597,582,582.60330205964965
2015-10-27 17:18:38.700709,580,585.05876436541996
2015-10-27 17:18:38.700780,578,587.51422667119016
2015-10-27 17:18:38.716712,579,589.96968897696047
2015-10-27 17:18:38.716825,578,592.42515128273078
2015-10-27 17:18:38.716894,577,594.88061358850098
2015-10-27 17:18:38.716960,577,597.23366321851324
2015-10-27 17:18:38.732804,577,599.08956467921428
2015-10-27 17:18:38.732898,576,600.54826026342528
2015-10-27 17:18:38.732967,574,601.72841018880877
2015-10-27 17:18:38.748746,570,602.72651412613652
2015-10-27 17:18:38.748839,574,603.60854603625285
2015-10-27 17:18:38.748908,591,604.39347768391292
2015-10-27 17:18:38.764815,630,605.08768663338719
2015-10-27 17:18:38.764908,707,605.72911641418625
2015-10-27 17:18:38.764975,794,606.35640405936169
2015-10-27 17:18:38.780830,860,606.97731414026646
2015-10-27 17:18:38.780924,871,607.56933935823929
2015-10-27 17:18:38.780992,707,608.10833156762328
2015-10-27 17:18:38.796780,531,608.58911438751625
2015-10-27 17:18:38.796874,463,609.0368082026871
2015-10-27 17:18:38.796942,482,609.45492365138512
2015-10-27 17:18:38.812730,517,609.84440807706494
2015-10-27 17:18:38.812823,540,610.22363265279762
2015-10-27 17:18:38.812893,554,610.58328487209076
2015-10-27 17:18:38.828702,557,610.90404621841867
2015-10-27 17:18:38.828796,559,611.18850488223234
2015-10-27 17:18:38.828865,562,611.42570751004348
2015-10-27 17:18:38.844686,563,611.61660144530686
2015-10-27 17:18:38.844784,563,611.77308738496572
2015-10-27 17:18:38.844864,565,611.90611868250858
2015-10-27 17:18:38.860565,565,612.01345389925507
2015-10-27 17:18:38.860659,566,612.10121675956202
2015-10-27 17:18:38.860727,568,612.15974800516653
2015-10-27 17:18:38.876737,568,612.18870088429833
2015-10-27 17:18:38.877182,569,612.20221753258079
2015-10-27 17:18:38.877349,571,612.21573418086325
2015-10-27 17:18:38.892637,571,612.22925082914571
2015-10-27 17:18:38.892827,572,612.24276747742817
2015-10-27 17:18:38.893059,575,612.25628412571064
2015-10-27 17:18:38.908644,575,612.2698007739931
2015-10-27 17:18:38.908742,576,612.28331742227556
2015-10-27 17:18:38.909149,576,612.29683407055791
2015-10-27 17:18:38.924535,576,612.31035071884037
2015-10-27 17:18:38.924649,577,612.32386736712272
2015-10-27 17:18:38.924719,578,612.33738401540518
2015-10-27 17:18:38.940647,579,612.35090066368753
2015-10-27 17:18:38.940754,580,612.36441731196999
2015-10-27 17:18:38.940824,583,612.37793396025245
2015-10-27 17:18:38.956517,585,612.39145060853491
2015-10-27 17:18:38.956631,588,612.40496725681737
2015-10-27 17:18:38.956702,590,612.41848390509972
2015-10-27 17:18:38.956768,592,612.43200055338218
2015-10-27 17:18:38.972577,596,612.44551720166453
2015-10-27 17:18:38.972669,599,612.45903384994699
2015-10-27 17:18:38.972738,600,612.58594142313291
2015-10-27 17:18:38.988598,602,612.92955681989258
2015-10-27 17:18:38.988692,603,613.36292267572605
2015-10-27 17:18:38.988760,603,613.80670930956353
2015-10-27 17:18:39.004709,602,614.24661365772442
2015-10-27 17:18:39.004847,600,614.68651800588532
2015-10-27 17:18:39.004975,596,615.12642235404621
2015-10-27 17:18:39.020578,591,615.56632670220711
2015-10-27 17:18:39.020673,587,616.006231050368
2015-10-27 17:18:39.020741,583,616.4461353985289
2015-10-27 17:18:39.036701,579,616.88733384191528
2015-10-27 17:18:39.036795,577,617.32853228530166
2015-10-27 17:18:39.036863,574,617.76973072868816
2015-10-27 17:18:39.052661,570,618.20774038993932
2015-10-27 17:18:39.052754,565,618.62677828643518
2015-10-27 17:18:39.052822,561,619.04969846860774
2015-10-27 17:18:39.068743,556,619.46718842996449
2015-10-27 17:18:39.068837,552,619.88631923831736
2015-10-27 17:18:39.068906,548,620.30260801630538
2015-10-27 17:18:39.084602,545,620.71864295437979
2015-10-27 17:18:39.084689,542,621.12735298472865
2015-10-27 17:18:39.084753,540,621.53322098471278
2015-10-27 17:18:39.100684,538,621.9349528591066
2015-10-27 17:18:39.100778,535,622.3322018561397
2015-10-27 17:18:39.100845,534,622.73592132930025
2015-10-27 17:18:39.116585,533,623.14352308813727
2015-10-27 17:18:39.116683,532,623.55630122787647
2015-10-27 17:18:39.116752,531,623.97296165329215
2015-10-27 17:18:39.132603,531,624.3922102691588
2015-10-27 17:18:39.132782,531,624.81275298025093
2015-10-27 17:18:39.132877,532,625.23458978656868
2015-10-27 17:18:39.148559,533,625.6590147833374
2015-10-27 17:18:39.148657,532,626.08343978010612
2015-10-27 17:18:39.148713,531,626.50786477687484
2015-10-27 17:18:39.164635,531,626.93617205932014
2015-10-27 17:18:39.164798,530,627.3696557226674
2015-10-27 17:18:39.165056,530,627.80313938601478
2015-10-27 17:18:39.180703,529,628.23791714458753
2015-10-27 17:18:39.180815,529,628.6726949031605
2015-10-27 17:18:39.180885,529,629.10747266173325
2015-10-27 17:18:39.196645,531,629.54225042030612
2015-10-27 17:18:39.196757,533,629.97702817887887
2015-10-27 17:18:39.196826,535,630.41180593745185
2015-10-27 17:18:39.196891,536,630.84917188647569
2015-10-27 17:18:39.212617,537,631.28783193072502
2015-10-27 17:18:39.212748,537,631.72649197497446
2015-10-27 17:18:39.212864,537,632.1651520192238
2015-10-27 17:18:39.228705,537,632.60381206347313
2015-10-27 17:18:39.228798,538,633.04247210772246
2015-10-27 17:18:39.228866,537,633.48113215197191
2015-10-27 17:18:39.244767,537,633.91979219622124
2015-10-27 17:18:39.244861,536,634.35845224047057
2015-10-27 17:18:39.244928,536,634.7971122847199
2015-10-27 17:18:39.260704,537,635.23577232896935
2015-10-27 17:18:39.260798,537,635.67443237321868
2015-10-27 17:18:39.260867,535,636.11309241746812
2015-10-27 17:18:39.276563,535,636.55175246171746
2015-10-27 17:18:39.276656,534,636.99041250596679
2015-10-27 17:18:39.276724,533,637.42907255021612
2015-10-27 17:18:39.292576,531,637.86773259446545
2015-10-27 17:18:39.292679,531,638.3063926387149
2015-10-27 17:18:39.292748,531,638.74505268296423
2015-10-27 17:18:39.308766,530,639.18371272721356
2015-10-27 17:18:39.308860,530,639.62237277146289
2015-10-27 17:18:39.309035,529,640.06103281571234
2015-10-27 17:18:39.324685,528,640.49130280126735
2015-10-27 17:18:39.324780,529,640.92157278682225
2015-10-27 17:18:39.324849,528,641.35184277237738
2015-10-27 17:18:39.340543,528,641.78211275793228
2015-10-27 17:18:39.340651,527,642.21367683871279
2015-10-27 17:18:39.340721,525,642.64782910994438
2015-10-27 17:18:39.356557,524,643.08327547640147
2015-10-27 17:18:39.356655,525,643.51872184285855
2015-10-27 17:18:39.356724,525,643.95416820931564
2015-10-27 17:18:39.372538,524,644.38961457577261
2015-10-27 17:18:39.372635,525,644.8250609422297
2015-10-27 17:18:39.372705,526,645.26050730868678
2015-10-27 17:18:39.388676,527,645.69595367514376
2015-10-27 17:18:39.388773,526,646.13140004160084
2015-10-27 17:18:39.388843,526,646.5668464080577
2015-10-27 17:18:39.404685,525,647.00229277451479
2015-10-27 17:18:39.404849,524,647.43773914097176
2015-10-27 17:18:39.404919,524,647.87318550742884
2015-10-27 17:18:39.420477,525,648.30863187388582
2015-10-27 17:18:39.420588,526,648.7440782403429
2015-10-27 17:18:39.420657,524,649.17952460679976
2015-10-27 17:18:39.436670,523,649.61626506848222
2015-10-27 17:18:39.436781,522,650.05429962539006
2015-10-27 17:18:39.436850,522,650.49233418229801
2015-10-27 17:18:39.436916,521,650.93166283443168
2015-10-27 17:18:39.452830,524,651.37099148656523
2015-10-27 17:18:39.452924,525,651.81032013869878
2015-10-27 17:18:39.452993,523,652.24964879083223
2015-10-27 17:18:39.468694,523,652.68897744296578
2015-10-27 17:18:39.468787,524,653.12830609509933
2015-10-27 17:18:39.468854,521,653.56763474723277
2015-10-27 17:18:39.484662,519,654.00955158981708
2015-10-27 17:18:39.484756,520,654.4514684324015
2015-10-27 17:18:39.484823,521,654.89338527498603
2015-10-27 17:18:39.500668,524,655.33530211757045
2015-10-27 17:18:39.500760,522,655.66382803525141
2015-10-27 17:18:39.500828,516,655.77599288112947
2015-10-27 17:18:39.516651,513,655.79297704711803
2015-10-27 17:18:39.516744,515,655.80083453032785
2015-10-27 17:18:39.516812,516,655.81257429921413
2015-10-27 17:18:39.532659,521,655.82431406810065
2015-10-27 17:18:39.532751,528,655.83605383698705
2015-10-27 17:18:39.532820,533,655.84779360587345
2015-10-27 17:18:39.548526,536,655.85953337475985
2015-10-27 17:18:39.548671,533,655.87127314364625
2015-10-27 17:18:39.548789,530,655.88301291253265
2015-10-27 17:18:39.564650,530,655.89475268141905
2015-10-27 17:18:39.564747,528,655.90649245030545
2015-10-27 17:18:39.564816,524,655.91823221919196
2015-10-27 17:18:39.580470,521,655.92997198807836
2015-10-27 17:18:39.580569,516,655.94171175696476
2015-10-27 17:18:39.580644,514,655.95474562107665
2015-10-27 17:18:39.596405,513,655.96907358041437
2015-10-27 17:18:39.596473,512,655.9811601010714
2015-10-27 17:18:39.596522,511,655.99229927827355
2015-10-27 17:18:39.612453,510,656.00249111202083
2015-10-27 17:18:39.612748,511,656.01268294576812
2015-10-27 17:18:39.612825,508,656.01968599738007
2015-10-27 17:18:39.628429,505,656.02255292340192
2015-10-27 17:18:39.628529,505,656.02930213510012
2015-10-27 17:18:39.628605,504,656.03380990811797
2015-10-27 17:18:39.644615,502,656.03512889900048
2015-10-27 17:18:39.644728,505,656.03644788988288
2015-10-27 17:18:39.644805,525,656.03776688076539
2015-10-27 17:18:39.660475,571,656.0390858716479
2015-10-27 17:18:39.660576,660,656.04040486253041
2015-10-27 17:18:39.660640,755,656.04172385341292
2015-10-27 17:18:39.676399,834,656.04304284429531
2015-10-27 17:18:39.676527,832,656.04436183517794
2015-10-27 17:18:39.676589,637,656.04568082606033
2015-10-27 17:18:39.676636,437,655.71895668343222
2015-10-27 17:18:39.692412,369,654.8296180904764
2015-10-27 17:18:39.692470,398,653.57905444743119
2015-10-27 17:18:39.692519,440,652.35825499457258
2015-10-27 17:18:39.708570,466,651.13745554171385
2015-10-27 17:18:39.708667,478,649.91665608885523
2015-10-27 17:18:39.708737,481,648.69585663599651
2015-10-27 17:18:39.724452,484,647.47505718313778
2015-10-27 17:18:39.724653,490,646.25425773027916
2015-10-27 17:18:39.724829,491,645.03345827742055
2015-10-27 17:18:39.740556,491,643.81265882456194
2015-10-27 17:18:39.740650,494,642.59185937170332
2015-10-27 17:18:39.740718,499,641.37105991884448
2015-10-27 17:18:39.756701,497,640.15026046598587
2015-10-27 17:18:39.756925,499,638.92946101312714
2015-10-27 17:18:39.757001,500,637.70866156026841
2015-10-27 17:18:39.772784,501,636.4878621074098
2015-10-27 17:18:39.772970,502,635.26706265455118
2015-10-27 17:18:39.773059,503,634.04626320169245
2015-10-27 17:18:39.788439,505,632.82546374883384
2015-10-27 17:18:39.788534,505,631.60466429597523
2015-10-27 17:18:39.788670,505,630.3838648431165
2015-10-27 17:18:39.804643,507,629.16306539025788
2015-10-27 17:18:39.804809,508,627.94226593739927
2015-10-27 17:18:39.804883,510,626.72146648454066
2015-10-27 17:18:39.820402,512,625.50066703168204
2015-10-27 17:18:39.820495,514,624.27986757882343
2015-10-27 17:18:39.820563,516,623.05906812596481
2015-10-27 17:18:39.836386,517,621.8382686731062
2015-10-27 17:18:39.836443,519,620.61746922024759
2015-10-27 17:18:39.836481,523,619.39537567216337
2015-10-27 17:18:39.852339,527,618.17328212407926
2015-10-27 17:18:39.852397,530,616.95118857599505
2015-10-27 17:18:39.852437,533,615.72909502791083
2015-10-27 17:18:39.868369,535,614.50570738460112
2015-10-27 17:18:39.868427,539,613.27973155084044
2015-10-27 17:18:39.868466,543,612.05246162185415
2015-10-27 17:18:39.884334,545,610.82519169286786
2015-10-27 17:18:39.884437,547,609.59792176388157
2015-10-27 17:18:39.884511,547,608.37065183489528
2015-10-27 17:18:39.900526,545,607.143381905909
2015-10-27 17:18:39.900637,543,605.91611197692271
2015-10-27 17:18:39.900706,539,604.68884204793642
2015-10-27 17:18:39.916558,535,603.46157211895024
2015-10-27 17:18:39.916721,530,602.23430218996396
2015-10-27 17:18:39.916792,525,601.00703226097778
2015-10-27 17:18:39.932332,520,599.77976233199149
2015-10-27 17:18:39.932414,515,598.5524924030052
2015-10-27 17:18:39.932475,512,597.32522247401903
2015-10-27 17:18:39.932525,510,596.09795254503274
2015-10-27 17:18:39.948331,506,594.87068261604645
2015-10-27 17:18:39.948398,500,593.64211859183479
2015-10-27 17:18:39.948447,496,592.41226047239752
2015-10-27 17:18:39.964492,493,591.18240235296025
2015-10-27 17:18:39.964585,489,589.95125013829761
2015-10-27 17:18:39.964653,486,588.72009792363485
2015-10-27 17:18:39.980388,483,587.4889457089721
2015-10-27 17:18:39.980504,481,586.25779349430934
2015-10-27 17:18:39.980605,479,585.0266412796467
2015-10-27 17:18:39.996314,478,583.79548906498405
2015-10-27 17:18:39.996379,477,582.56433685032141
2015-10-27 17:18:39.996426,477,581.33059644520768
2015-10-27 17:18:40.012415,476,580.09685604009383
2015-10-27 17:18:40.012519,475,578.8631156349802
2015-10-27 17:18:40.012614,474,577.62937522986647
2015-10-27 17:18:40.028282,475,576.39563482475273
2015-10-27 17:18:40.028338,475,575.16154766786838
2015-10-27 17:18:40.028376,475,573.93289073179983
2015-10-27 17:18:40.044301,476,572.70293970050568
2015-10-27 17:18:40.044386,477,571.47298866921153
2015-10-27 17:18:40.044450,477,570.2430376379175
2015-10-27 17:18:40.060244,479,569.01308660662335
2015-10-27 17:18:40.060302,480,567.78313557532931
2015-10-27 17:18:40.060343,480,566.55318454403516
2015-10-27 17:18:40.076688,482,565.32323351274113
2015-10-27 17:18:40.076786,483,564.09328248144698
2015-10-27 17:18:40.076855,483,562.86333145015294
2015-10-27 17:18:40.092525,485,561.63338041885879
2015-10-27 17:18:40.092625,486,560.40342938756476
2015-10-27 17:18:40.092694,488,559.17347835627061
2015-10-27 17:18:40.108460,488,557.94352732497657
2015-10-27 17:18:40.108557,489,556.71228219845693
2015-10-27 17:18:40.108625,491,555.47974297671192
2015-10-27 17:18:40.124231,493,554.24944519364726
2015-10-27 17:18:40.124289,493,553.02009475403736
2015-10-27 17:18:40.124327,495,551.79169165788255
2015-10-27 17:18:40.140291,495,550.56328856172775
2015-10-27 17:18:40.140403,496,549.33807424770816
2015-10-27 17:18:40.140472,496,548.11699605927879
2015-10-27 17:18:40.156434,496,546.89203558517306
2015-10-27 17:18:40.156545,495,545.66931654974758
2015-10-27 17:18:40.156615,493,544.44978629645755
2015-10-27 17:18:40.172255,493,543.2302560431674
2015-10-27 17:18:40.172371,490,542.01072578987726
2015-10-27 17:18:40.172441,490,540.79119553658722
2015-10-27 17:18:40.172507,490,539.57166528329708
2015-10-27 17:18:40.188365,489,538.35213503000705
2015-10-27 17:18:40.188494,490,537.1326047767169
2015-10-27 17:18:40.188600,489,535.91307452342676
2015-10-27 17:18:40.204228,489,534.69354427013673
2015-10-27 17:18:40.204339,488,533.80076305513171
2015-10-27 17:18:40.204421,488,533.47059629045464
2015-10-27 17:18:40.220258,487,533.50036048064135
2015-10-27 17:18:40.220346,487,533.50036048064135
2015-10-27 17:18:40.220412,487,533.50036048064135
2015-10-27 17:18:40.236226,485,533.50036048064135
2015-10-27 17:18:40.236315,484,533.50036048064135
2015-10-27 17:18:40.236388,484,533.50036048064135
2015-10-27 17:18:40.252305,485,533.50036048064135
2015-10-27 17:18:40.252362,484,533.50036048064135
2015-10-27 17:18:40.252401,482,533.50036048064135
2015-10-27 17:18:40.268870,482,533.50036048064135
2015-10-27 17:18:40.268960,480,533.50036048064135
2015-10-27 17:18:40.269030,481,533.50036048064135
2015-10-27 17:18:40.284229,480,533.50036048064135
2015-10-27 17:18:40.284286,479,533.50036048064135
2015-10-27 17:18:40.284326,480,533.50036048064135
2015-10-27 17:18:40.300326,480,533.50036048064135
2015-10-27 17:18:40.300447,480,533.50036048064135
2015-10-27 17:18:40.300517,480,533.50036048064135
2015-10-27 17:18:40.316293,479,533.50036048064135
2015-10-27 17:18:40.316361,478,533.50036048064135
2015-10-27 17:18:40.316407,477,533.50036048064135
2015-10-27 17:18:40.332186,477,533.50036048064135
2015-10-27 17:18:40.332257,477,533.50036048064135
2015-10-27 17:18:40.332305,475,533.50036048064135
2015-10-27 17:18:40.348230,475,533.50036048064135
2015-10-27 17:18:40.348295,475,533.50036048064135
2015-10-27 17:18:40.348339,474,533.50036048064135
2015-10-27 17:18:40.364316,475,533.50036048064135
2015-10-27 17:18:40.364392,473,533.50036048064135
2015-10-27 17:18:40.364439,471,533.50036048064135
2015-10-27 17:18:40.380362,470,533.50036048064135
2015-10-27 17:18:40.380505,469,533.50036048064135
2015-10-27 17:18:40.380576,470,533.50036048064135
2015-10-27 17:18:40.396163,467,533.50036048064135
2015-10-27 17:18:40.396315,463,533.50036048064135
2015-10-27 17:18:40.396431,461,533.50036048064135
2015-10-27 17:18:40.412379,462,533.50036048064135
2015-10-27 17:18:40.412492,465,533.50036048064135
2015-10-27 17:18:40.412580,472,533.50036048064135
2015-10-27 17:18:40.412659,480,533.50036048064135
2015-10-27 17:18:40.428448,486,533.50036048064135
2015-10-27 17:18:40.428541,483,533.50036048064135
2015-10-27 17:18:40.428610,476,533.50036048064135
2015-10-27 17:18:40.444419,473,533.50036048064135
2015-10-27 17:18:40.444512,472,533.50036048064135
2015-10-27 17:18:40.444580,468,533.50036048064135
2015-10-27 17:18:40.460450,463,533.50036048064135
2015-10-27 17:18:40.460542,459,533.50036048064135
2015-10-27 17:18:40.460610,455,533.50036048064135
2015-10-27 17:18:40.476391,453,533.50036048064135
2015-10-27 17:18:40.476483,451,533.50036048064135
2015-10-27 17:18:40.476551,449,533.50036048064135
2015-10-27 17:18:40.492383,448,533.50036048064135
2015-10-27 17:18:40.492475,447,533.50036048064135
2015-10-27 17:18:40.492543,444,533.50036048064135
2015-10-27 17:18:40.508303,443,533.50036048064135
2015-10-27 17:18:40.508396,442,533.50036048064135
2015-10-27 17:18:40.508464,441,533.50036048064135
2015-10-27 17:18:40.524184,439,533.50165457586684
2015-10-27 17:18:40.524278,440,533.50294867109244
2015-10-27 17:18:40.524347,454,533.50424276631793
2015-10-27 17:18:40.540220,488,533.50553686154342
2015-10-27 17:18:40.540380,561,533.50683095676902
2015-10-27 17:18:40.540511,657,533.50812505199451
2015-10-27 17:18:40.556174,737,533.50941914722
2015-10-27 17:18:40.556270,781,533.5107132424456
2015-10-27 17:18:40.556339,631,533.51200733767109
2015-10-27 17:18:40.572291,407,533.44864646293513
2015-10-27 17:18:40.572388,293,532.79429395476677
2015-10-27 17:18:40.572455,306,531.55958131054126
2015-10-27 17:18:40.588398,353,530.32653440896888
2015-10-27 17:18:40.588497,383,529.0934875073965
2015-10-27 17:18:40.588564,400,527.86044060582412
2015-10-27 17:18:40.604162,403,526.62739370425174
2015-10-27 17:18:40.604260,406,525.39434680267937
2015-10-27 17:18:40.604328,413,524.16129990110699
2015-10-27 17:18:40.620172,414,522.92825299953461
2015-10-27 17:18:40.620283,414,521.69520609796223
2015-10-27 17:18:40.620352,415,520.46215919638985
2015-10-27 17:18:40.636269,415,519.22911229481747
2015-10-27 17:18:40.636420,417,517.99606539324509
2015-10-27 17:18:40.636490,417,516.76301849167271
2015-10-27 17:18:40.652241,418,515.52997159010033
2015-10-27 17:18:40.652352,418,514.29692468852795
2015-10-27 17:18:40.652421,417,513.06387778695557
2015-10-27 17:18:40.652487,418,511.83083088538319
2015-10-27 17:18:40.668425,419,510.59778398381081
2015-10-27 17:18:40.668519,420,509.36473708223843
2015-10-27 17:18:40.668587,420,508.13169018066606
2015-10-27 17:18:40.684166,419,506.89864327909368
2015-10-27 17:18:40.684290,420,505.6655963775213
2015-10-27 17:18:40.684396,420,504.43254947594892
2015-10-27 17:18:40.700112,420,503.19950257437654
2015-10-27 17:18:40.700225,422,501.96645567280416
2015-10-27 17:18:40.700319,424,500.73340877123178
2015-10-27 17:18:40.716110,425,499.5003618696594
2015-10-27 17:18:40.716227,426,498.26731496808702
2015-10-27 17:18:40.716283,429,497.03426806651464
2015-10-27 17:18:40.732119,432,495.80122116494226
2015-10-27 17:18:40.732305,435,494.55005693021269
2015-10-27 17:18:40.732406,436,493.29889269548318
2015-10-27 17:18:40.748070,439,492.0477284607536
2015-10-27 17:18:40.748128,442,490.79656422602409
2015-10-27 17:18:40.748286,446,489.54539999129452
2015-10-27 17:18:40.764086,447,488.294235756565
2015-10-27 17:18:40.764144,447,487.04307152183537
2015-10-27 17:18:40.764183,446,485.79190728710586
2015-10-27 17:18:40.780267,445,484.54074305237629
2015-10-27 17:18:40.780362,442,483.28957881764677
2015-10-27 17:18:40.780430,439,482.03841458291726
2015-10-27 17:18:40.796245,435,480.78725034818768
2015-10-27 17:18:40.796339,428,479.53608611345811
2015-10-27 17:18:40.796407,421,478.28492187872848
2015-10-27 17:18:40.812360,416,477.03375764399891
2015-10-27 17:18:40.812457,411,475.78259340926928
2015-10-27 17:18:40.812526,407,474.53142917453965
2015-10-27 17:18:40.828268,404,473.28026493981008
2015-10-27 17:18:40.828365,400,472.02910070508051
2015-10-27 17:18:40.828433,393,470.77793647035094
2015-10-27 17:18:40.844277,389,469.52677223562137
2015-10-27 17:18:40.844374,384,468.27560800089174
2015-10-27 17:18:40.844460,381,467.02703195661309
2015-10-27 17:18:40.860075,376,465.78492638846205
2015-10-27 17:18:40.860186,373,464.54670310598755
2015-10-27 17:18:40.860257,370,463.31236210918956
2015-10-27 17:18:40.876064,366,462.08319749329365
2015-10-27 17:18:40.876177,364,460.85662106784872
2015-10-27 17:18:40.876247,361,459.63392692808026
2015-10-27 17:18:40.892052,360,458.4125268835374
2015-10-27 17:18:40.892179,359,457.19242093422002
2015-10-27 17:18:40.892236,358,455.97360908012809
2015-10-27 17:18:40.908154,357,454.75609132126169
2015-10-27 17:18:40.908267,357,453.53857356239524
2015-10-27 17:18:40.908337,357,452.32105580352891
2015-10-27 17:18:40.908402,360,451.10353804466251
2015-10-27 17:18:40.924275,361,449.88602028579612
2015-10-27 17:18:40.924370,363,448.66850252692973
2015-10-27 17:18:40.924439,363,447.45098476806328
2015-10-27 17:18:40.940168,363,446.23346700919694
2015-10-27 17:18:40.940280,366,445.01594925033049
2015-10-27 17:18:40.940350,366,443.7984314914641
2015-10-27 17:18:40.956074,365,442.58091373259771
2015-10-27 17:18:40.956155,367,441.36339597373131
2015-10-27 17:18:40.956204,370,440.14587821486498
2015-10-27 17:18:40.972251,371,438.92836045599859
2015-10-27 17:18:40.972344,372,437.71084269713219
2015-10-27 17:18:40.972411,375,436.4933249382658
2015-10-27 17:18:40.988127,377,435.27580717939952
2015-10-27 17:18:40.988222,377,434.05828942053313
2015-10-27 17:18:40.988290,379,432.84077166166674
2015-10-27 17:18:41.004245,379,431.62325390280034
2015-10-27 17:18:41.004338,380,430.40573614393406
2015-10-27 17:18:41.004406,380,429.18821838506767
2015-10-27 17:18:41.020272,379,427.97070062620139
2015-10-27 17:18:41.020367,378,426.753182867335
2015-10-27 17:18:41.020434,379,425.53566510846861
2015-10-27 17:18:41.036326,379,424.31814734960233
2015-10-27 17:18:41.036421,378,423.10062959073599
2015-10-27 17:18:41.036490,378,421.88181773664417
2015-10-27 17:18:41.052095,378,420.66300588255234
2015-10-27 17:18:41.052283,377,419.44419402846052
2015-10-27 17:18:41.052455,377,418.22538217436858
2015-10-27 17:18:41.068068,377,417.00657032027675
2015-10-27 17:18:41.068164,376,415.78775846618493
2015-10-27 17:18:41.068234,376,414.5689466120931
2015-10-27 17:18:41.084300,375,413.35013475800122
2015-10-27 17:18:41.084396,376,412.13132290390939
2015-10-27 17:18:41.084465,377,410.97716601977913
2015-10-27 17:18:41.100132,376,410.4140007690811
2015-10-27 17:18:41.100225,377,410.43119565444033
2015-10-27 17:18:41.100282,379,410.44672479714637
2015-10-27 17:18:41.116213,379,410.46225393985253
2015-10-27 17:18:41.116324,378,410.47778308255863
2015-10-27 17:18:41.116395,379,410.49331222526479
2015-10-27 17:18:41.132215,380,410.50884136797083
2015-10-27 17:18:41.132369,381,410.52437051067699
2015-10-27 17:18:41.132439,382,410.53989965338303
2015-10-27 17:18:41.148262,383,410.55542879608919
2015-10-27 17:18:41.148426,383,410.57095793879529
2015-10-27 17:18:41.148496,384,410.58648708150145
2015-10-27 17:18:41.148561,385,410.60201622420755
2015-10-27 17:18:41.164101,386,410.61754536691365
2015-10-27 17:18:41.164193,388,410.6330745096198
2015-10-27 17:18:41.164262,389,410.64860365232585
2015-10-27 17:18:41.180055,390,410.664132795032
2015-10-27 17:18:41.180122,390,410.67966193773816
2015-10-27 17:18:41.180171,392,410.6951910804442
2015-10-27 17:18:41.195973,393,410.71072022315036
2015-10-27 17:18:41.196029,395,410.72624936585652
2015-10-27 17:18:41.196068,396,410.74177850856256
2015-10-27 17:18:41.212128,397,410.75730765126872
2015-10-27 17:18:41.212263,398,410.77283679397488
2015-10-27 17:18:41.212333,400,410.78836593668098
2015-10-27 17:18:41.228247,401,410.80389507938708
2015-10-27 17:18:41.228388,403,410.81942422209318
2015-10-27 17:18:41.228589,404,410.83495336479933
2015-10-27 17:18:41.244132,403,410.85048250750543
2015-10-27 17:18:41.244284,404,410.86601165021153
2015-10-27 17:18:41.244420,405,410.88154079291769
2015-10-27 17:18:41.260082,406,410.91518726878087
2015-10-27 17:18:41.260210,408,410.94883374464416
2015-10-27 17:18:41.260271,410,410.98248022050734
2015-10-27 17:18:41.276032,410,411.01612669637063
2015-10-27 17:18:41.276101,408,411.04977317223387
2015-10-27 17:18:41.276150,407,411.08341964809705
2015-10-27 17:18:41.292024,409,411.11706612396034
2015-10-27 17:18:41.292182,413,411.15071259982352
2015-10-27 17:18:41.292313,419,411.18435907568681
2015-10-27 17:18:41.308026,427,411.21800555155005
2015-10-27 17:18:41.308125,437,411.25165202741323
2015-10-27 17:18:41.308193,444,411.28529850327652
2015-10-27 17:18:41.324380,443,411.3189449791397
2015-10-27 17:18:41.324515,438,411.35259145500299
2015-10-27 17:18:41.324584,439,411.38623793086623
2015-10-27 17:18:41.340279,438,411.41988440672941
2015-10-27 17:18:41.340407,436,411.4535308825927
2015-10-27 17:18:41.340488,436,411.48717735845588
2015-10-27 17:18:41.356000,434,411.52082383431912
2015-10-27 17:18:41.356168,432,411.55447031018241
2015-10-27 17:18:41.356280,433,411.58811678604559
2015-10-27 17:18:41.372058,433,411.62176326190882
2015-10-27 17:18:41.372244,433,411.65282154732108
2015-10-27 17:18:41.372336,434,411.67740935660572
2015-10-27 17:18:41.388226,435,411.69811488021384
2015-10-27 17:18:41.388410,435,411.71493811814554
2015-10-27 17:18:41.388534,438,411.72658497517506
2015-10-27 17:18:41.388647,439,411.73564364175365
2015-10-27 17:18:41.404238,439,411.74082002265573
2015-10-27 17:18:41.404330,442,411.74470230833219
2015-10-27 17:18:41.404398,452,411.74729049878323
2015-10-27 17:18:41.420186,474,411.74858459400872
2015-10-27 17:18:41.420280,518,411.74858459400872
2015-10-27 17:18:41.420348,595,411.74858459400872
2015-10-27 17:18:41.436209,679,411.74858459400872
2015-10-27 17:18:41.436302,752,411.74858459400872
2015-10-27 17:18:41.436370,750,411.74858459400872
2015-10-27 17:18:41.452015,574,411.74858459400872
2015-10-27 17:18:41.452110,373,411.74858459400872
2015-10-27 17:18:41.452179,311,411.65962055033322
2015-10-27 17:18:41.468206,351,411.57324469710869
2015-10-27 17:18:41.468299,395,411.48686884388417
2015-10-27 17:18:41.468368,422,411.40049299065964
2015-10-27 17:18:41.484062,437,411.31411713743512
2015-10-27 17:18:41.484154,444,411.22774128421059
2015-10-27 17:18:41.484222,446,411.14136543098607
2015-10-27 17:18:41.499992,453,411.05498957776155
2015-10-27 17:18:41.500085,459,410.96861372453702
2015-10-27 17:18:41.500153,462,410.8822378713125
2015-10-27 17:18:41.516061,465,410.79586201808797
2015-10-27 17:18:41.516227,468,410.70948616486345
2015-10-27 17:18:41.516360,470,410.62311031163892
2015-10-27 17:18:41.532167,474,410.5367344584144
2015-10-27 17:18:41.532261,479,410.45035860518988
2015-10-27 17:18:41.532329,481,410.3639827519653
2015-10-27 17:18:41.547994,484,410.27760689874077
2015-10-27 17:18:41.548089,488,410.19123104551625
2015-10-27 17:18:41.548157,491,410.10485519229172
2015-10-27 17:18:41.563958,493,410.0184793390672
2015-10-27 17:18:41.564052,494,409.93210348584267
2015-10-27 17:18:41.564121,497,409.84572763261815
2015-10-27 17:18:41.580019,499,409.75935177939363
2015-10-27 17:18:41.580184,502,409.6729759261691
2015-10-27 17:18:41.580267,506,409.58660007294458
2015-10-27 17:18:41.595934,509,409.50022421972005
2015-10-27 17:18:41.596092,511,409.41384836649553
2015-10-27 17:18:41.596171,516,409.327472513271
2015-10-27 17:18:41.612220,520,409.24109666004648
2015-10-27 17:18:41.612340,523,409.15472080682196
2015-10-27 17:18:41.612432,527,409.26002530425882
2015-10-27 17:18:41.628117,532,409.72339096530675
2015-10-27 17:18:41.628228,538,410.19572238107634
2015-10-27 17:18:41.628298,543,410.66805379684592
2015-10-27 17:18:41.628363,548,411.14038521261551
2015-10-27 17:18:41.644237,552,411.6127166283851
2015-10-27 17:18:41.644332,555,412.08504804415469
2015-10-27 17:18:41.644400,557,412.55737945992428
2015-10-27 17:18:41.660041,559,413.02971087569387
2015-10-27 17:18:41.660182,558,413.50204229146345
2015-10-27 17:18:41.660287,555,413.97437370723304
2015-10-27 17:18:41.676182,550,414.44670512300263
2015-10-27 17:18:41.676275,546,414.91903653877222
2015-10-27 17:18:41.676401,542,415.39136795454181
2015-10-27 17:18:41.692132,538,415.86369937031139
2015-10-27 17:18:41.692224,535,416.33603078608098
2015-10-27 17:18:41.692293,532,416.80836220185057
2015-10-27 17:18:41.707990,529,417.28069361762016
2015-10-27 17:18:41.708140,527,417.75302503338975
2015-10-27 17:18:41.708305,524,418.22535644915934
2015-10-27 17:18:41.723922,519,418.69768786492892
2015-10-27 17:18:41.724012,515,419.17001928069851
2015-10-27 17:18:41.724079,513,419.6423506964681
2015-10-27 17:18:41.739938,512,420.11468211223769
2015-10-27 17:18:41.740033,509,420.58701352800716
2015-10-27 17:18:41.740102,507,421.05934494377675
2015-10-27 17:18:41.756116,504,421.53167635954634
2015-10-27 17:18:41.756210,502,422.00400777531593
2015-10-27 17:18:41.756278,501,422.47633919108551
2015-10-27 17:18:41.772169,498,422.9486706068551
2015-10-27 17:18:41.772269,497,423.42100202262469
2015-10-27 17:18:41.772505,499,423.89333343839428
2015-10-27 17:18:41.788152,501,424.36566485416387
2015-10-27 17:18:41.788285,501,424.83799626993346
2015-10-27 17:18:41.788381,503,425.31032768570304
2015-10-27 17:18:41.804135,504,425.78265910147263
2015-10-27 17:18:41.804270,507,426.25499051724222
2015-10-27 17:18:41.804339,510,426.72732193301181
2015-10-27 17:18:41.820134,512,427.1996533487814
2015-10-27 17:18:41.820267,515,427.67198476455098
2015-10-27 17:18:41.820336,518,428.14431618032057
2015-10-27 17:18:41.835844,521,428.61664759609016
2015-10-27 17:18:41.835954,524,429.08897901185969
2015-10-27 17:18:41.836034,527,429.56131042762928
2015-10-27 17:18:41.851829,529,430.03364184339887
2015-10-27 17:18:41.851932,531,430.50597325916846
2015-10-27 17:18:41.851990,534,430.97830467493804
2015-10-27 17:18:41.867838,537,431.45063609070763
2015-10-27 17:18:41.867910,539,431.92296750647722
2015-10-27 17:18:41.867951,540,432.39529892224681
2015-10-27 17:18:41.867989,541,432.8676303380164
2015-10-27 17:18:41.883920,542,433.33996175378599
2015-10-27 17:18:41.883976,543,433.81229316955557
2015-10-27 17:18:41.884015,543,434.28462458532516
2015-10-27 17:18:41.900322,544,434.75695600109475
2015-10-27 17:18:41.900412,544,435.22928741686434
2015-10-27 17:18:41.900483,545,435.70161883263393
2015-10-27 17:18:41.915883,545,436.17395024840357
2015-10-27 17:18:41.916357,544,436.64628166417316
2015-10-27 17:18:41.916633,544,437.11861307994275
2015-10-27 17:18:41.931837,545,437.59094449571234
2015-10-27 17:18:41.931893,545,438.06327591148192
2015-10-27 17:18:41.931931,543,438.53560732725151
2015-10-27 17:18:41.947816,544,439.0079387430211
2015-10-27 17:18:41.947877,544,439.47638787311416
2015-10-27 17:18:41.947919,544,439.95026722402298
2015-10-27 17:18:41.963899,546,440.42379982316118
2015-10-27 17:18:41.963990,548,440.90181529966026
2015-10-27 17:18:41.964059,548,441.37983077615928
2015-10-27 17:18:41.979775,548,441.85525806220733
2015-10-27 17:18:41.979832,548,442.42283817406616
2015-10-27 17:18:41.979871,548,442.98783009547401
2015-10-27 17:18:41.995779,548,443.55152792165637
2015-10-27 17:18:41.995837,549,444.11582633952304
2015-10-27 17:18:41.995876,548,444.68555497820552
2015-10-27 17:18:42.011810,548,445.2562309603428
2015-10-27 17:18:42.011907,549,445.82785428593502
2015-10-27 17:18:42.011990,549,446.39913085975672
2015-10-27 17:18:42.027793,550,446.97040743357837
2015-10-27 17:18:42.027850,551,447.54168400740008
2015-10-27 17:18:42.027889,552,448.11296058122173
2015-10-27 17:18:42.043820,553,448.68423715504338
2015-10-27 17:18:42.043946,553,449.25551372886508
2015-10-27 17:18:42.044013,553,449.82679030268673
2015-10-27 17:18:42.059771,553,450.39806687650838
2015-10-27 17:18:42.059868,554,450.96934345033009
2015-10-27 17:18:42.059945,555,451.54062002415168
2015-10-27 17:18:42.075788,555,452.11189659797333
2015-10-27 17:18:42.075882,556,452.68317317179503
2015-10-27 17:18:42.075951,556,453.25444974561668
2015-10-27 17:18:42.091923,556,453.82572631943833
2015-10-27 17:18:42.092072,556,454.39700289326004
2015-10-27 17:18:42.092176,556,454.96827946708169
2015-10-27 17:18:42.107786,556,455.53955604090334
2015-10-27 17:18:42.107900,557,456.11083261472504
2015-10-27 17:18:42.107970,559,456.68210918854669
2015-10-27 17:18:42.123904,561,457.25338576236828
2015-10-27 17:18:42.124068,561,457.82336824096444
2015-10-27 17:18:42.124139,562,458.39335071956054
2015-10-27 17:18:42.124205,561,458.9633331981567
2015-10-27 17:18:42.139777,561,459.34034123086593
2015-10-27 17:18:42.139855,562,459.3579940047386
2015-10-27 17:18:42.139913,562,459.36668102388956
2015-10-27 17:18:42.155928,561,459.37536804304051
2015-10-27 17:18:42.156021,560,459.38276096696603
2015-10-27 17:18:42.156089,558,459.38885979566601
2015-10-27 17:18:42.172036,556,459.39366452914044
2015-10-27 17:18:42.172130,556,459.39717516738943
2015-10-27 17:18:42.172198,557,459.39939171041289
2015-10-27 17:18:42.187986,561,459.40160825343628
2015-10-27 17:18:42.188081,568,459.40253070123424
2015-10-27 17:18:42.188150,577,459.4021590538066
2015-10-27 17:18:42.203941,582,459.40049331115358
2015-10-27 17:18:42.204034,581,459.39623937804936
2015-10-27 17:18:42.204103,575,459.39069134971982
2015-10-27 17:18:42.219933,574,459.38384922616461
2015-10-27 17:18:42.220026,574,459.37700710260953
2015-10-27 17:18:42.220094,572,459.36757678860334
2015-10-27 17:18:42.235995,569,459.35685237937173
2015-10-27 17:18:42.236091,567,459.34353977968897
2015-10-27 17:18:42.236160,565,459.33022718000626
2015-10-27 17:18:42.251879,564,459.3169145803235
2015-10-27 17:18:42.251972,562,459.30360198064085
2015-10-27 17:18:42.252041,561,459.29028938095809
2015-10-27 17:18:42.267916,562,459.27697678127538
2015-10-27 17:18:42.268010,563,459.26366418159262
2015-10-27 17:18:42.268078,563,459.25035158190997
2015-10-27 17:18:42.283966,562,459.2370389822272
2015-10-27 17:18:42.284097,564,459.2237263825445
2015-10-27 17:18:42.284167,565,459.21041378286179
2015-10-27 17:18:42.299777,566,459.19710118317914
2015-10-27 17:18:42.299873,575,459.18378858349644
2015-10-27 17:18:42.299942,595,459.17047598381373
2015-10-27 17:18:42.315990,633,459.15716338413114
2015-10-27 17:18:42.316121,698,459.14385078444843
2015-10-27 17:18:42.316189,773,459.13053818476578
2015-10-27 17:18:42.331905,837,459.11722558508308
2015-10-27 17:18:42.332016,832,459.10391298540043
2015-10-27 17:18:42.332104,678,459.09060038571772
2015-10-27 17:18:42.347846,477,459.07728778603496
2015-10-27 17:18:42.347955,414,459.06397518635237
2015-10-27 17:18:42.348025,454,459.05066258666966
2015-10-27 17:18:42.363852,499,459.03734998698695
2015-10-27 17:18:42.363963,529,459.02403738730419
2015-10-27 17:18:42.364033,546,459.0107247876216
2015-10-27 17:18:42.364098,556,458.99741218793889
2015-10-27 17:18:42.380073,558,458.98409958825624
2015-10-27 17:18:42.380166,563,458.97078698857354
2015-10-27 17:18:42.380235,567,458.95747438889089
2015-10-27 17:18:42.395846,568,458.94416178920812
2015-10-27 17:18:42.396000,569,458.93084918952547
2015-10-27 17:18:42.396127,571,458.91753658984283
2015-10-27 17:18:42.412131,573,458.90422399016018
2015-10-27 17:18:42.412228,575,458.89091139047753
2015-10-27 17:18:42.412297,578,458.87759879079488
2015-10-27 17:18:42.427891,580,458.86428619111223
2015-10-27 17:18:42.427984,580,458.85097359142958
2015-10-27 17:18:42.428052,580,458.83766099174693
2015-10-27 17:18:42.443695,581,458.82434839206428
2015-10-27 17:18:42.443771,583,458.81103579238163
2015-10-27 17:18:42.443827,584,458.79772319269898
2015-10-27 17:18:42.459718,587,458.78441059301633
2015-10-27 17:18:42.459782,589,458.77109799333368
2015-10-27 17:18:42.459821,590,458.75778539365109
2015-10-27 17:18:42.475703,593,458.74835507964491
2015-10-27 17:18:42.475780,597,458.73349454482315
2015-10-27 17:18:42.475827,599,458.71898076177183
2015-10-27 17:18:42.491665,599,458.69998410135975
2015-10-27 17:18:42.491729,603,458.68098744094766
2015-10-27 17:18:42.491770,607,458.68930281267109
2015-10-27 17:18:42.507661,611,459.2879163142855
2015-10-27 17:18:42.507772,615,460.2564916764544
2015-10-27 17:18:42.507846,618,461.40960830527303
2015-10-27 17:18:42.523653,622,462.70070366827986
2015-10-27 17:18:42.523721,626,464.04034916251487
2015-10-27 17:18:42.523768,629,465.41017361490714
2015-10-27 17:18:42.539689,632,466.83337782765892
2015-10-27 17:18:42.539787,634,468.27261886294428
2015-10-27 17:18:42.539858,633,469.71470192859437
2015-10-27 17:18:42.555653,631,471.15962702460922
2015-10-27 17:18:42.555757,628,472.60868824621434
2015-10-27 17:18:42.555829,623,474.05705596427811
2015-10-27 17:18:42.571668,616,475.51050715138717
2015-10-27 17:18:42.571845,608,476.96809446408639
2015-10-27 17:18:42.571971,603,478.42309358633457
2015-10-27 17:18:42.587845,599,479.87421042290617
2015-10-27 17:18:42.588102,596,481.32015087857582
2015-10-27 17:18:42.588248,592,482.76220904856893
2015-10-27 17:18:42.603803,587,484.20167902811107
2015-10-27 17:18:42.603916,583,485.63985491242761
2015-10-27 17:18:42.603985,579,487.07414851106773
2015-10-27 17:18:42.604050,577,488.5084421097078
2015-10-27 17:18:42.619879,574,489.94273570834787
2015-10-27 17:18:42.619972,571,491.37702930698794
2015-10-27 17:18:42.620040,567,492.811322905628
2015-10-27 17:18:42.635866,563,494.24561650426801
2015-10-27 17:18:42.635982,559,495.67991010290802
2015-10-27 17:18:42.636051,555,497.11549779677364
2015-10-27 17:18:42.651868,552,498.55108549063914
2015-10-27 17:18:42.651961,549,499.98667318450475
2015-10-27 17:18:42.652028,548,501.42355497359586
2015-10-27 17:18:42.667795,548,502.86173085791245
2015-10-27 17:18:42.667889,550,504.29990674222904
2015-10-27 17:18:42.667958,550,505.73808262654552
2015-10-27 17:18:42.683656,551,507.1775526060876
2015-10-27 17:18:42.683749,552,508.61831668085517
2015-10-27 17:18:42.683817,553,510.06037485084823
2015-10-27 17:18:42.699833,556,511.50372711606678
2015-10-27 17:18:42.699926,558,512.94837347651082
2015-10-27 17:18:42.699994,559,514.39301983695498
2015-10-27 17:18:42.715775,562,515.83896029262451
2015-10-27 17:18:42.715870,565,517.28619484351975
2015-10-27 17:18:42.715939,568,518.73472348964026
2015-10-27 17:18:42.731815,571,520.18584032621186
2015-10-27 17:18:42.731910,572,521.63825125800906
2015-10-27 17:18:42.731980,573,523.09195628503164
2015-10-27 17:18:42.747761,574,524.54566131205422
2015-10-27 17:18:42.747856,573,526.00195452952801
2015-10-27 17:18:42.747925,574,527.45954184222717
2015-10-27 17:18:42.764047,575,528.91971734537742
2015-10-27 17:18:42.764213,574,530.37989284852756
2015-10-27 17:18:42.764336,574,531.84006835167781
2015-10-27 17:18:42.779929,573,533.30024385482807
2015-10-27 17:18:42.780031,572,534.76041935797821
2015-10-27 17:18:42.780099,570,536.22059486112846
2015-10-27 17:18:42.795585,570,537.68077036427871
2015-10-27 17:18:42.795682,570,539.14094586742885
2015-10-27 17:18:42.795794,569,540.60112137057911
2015-10-27 17:18:42.811611,568,542.06129687372936
2015-10-27 17:18:42.811788,566,543.5214723768795
2015-10-27 17:18:42.811881,565,544.97905968957878
2015-10-27 17:18:42.827524,563,546.43664700227794
2015-10-27 17:18:42.827688,563,547.89423431497721
2015-10-27 17:18:42.827771,563,549.35182162767637
2015-10-27 17:18:42.843517,563,550.80940894037565
2015-10-27 17:18:42.843585,563,552.26699625307481
2015-10-27 17:18:42.843625,561,553.72458356577408
2015-10-27 17:18:42.843662,561,555.18217087847324
2015-10-27 17:18:42.859597,561,556.6397581911724
2015-10-27 17:18:42.859697,560,558.09734550387168
2015-10-27 17:18:42.859786,559,559.55493281657084
2015-10-27 17:18:42.875563,558,561.01252012927011
2015-10-27 17:18:42.875634,557,562.47010744196928
2015-10-27 17:18:42.875686,558,563.92769475466855
2015-10-27 17:18:42.891663,559,565.38528206736771
2015-10-27 17:18:42.891777,560,566.84286938006699
2015-10-27 17:18:42.891866,559,568.30045669276615
2015-10-27 17:18:42.907534,557,569.75804400546542
2015-10-27 17:18:42.907604,555,571.21563131816458
2015-10-27 17:18:42.907656,556,572.67321863086386
2015-10-27 17:18:42.923549,557,574.13080594356302
2015-10-27 17:18:42.923613,557,575.58839325626229
2015-10-27 17:18:42.923667,556,577.04598056896145
2015-10-27 17:18:42.939636,555,578.50356788166062
2015-10-27 17:18:42.939765,556,579.96115519435989
2015-10-27 17:18:42.939816,556,581.41874250705916
2015-10-27 17:18:42.955526,555,582.87632981975833
2015-10-27 17:18:42.955592,554,584.33391713245749
2015-10-27 17:18:42.955639,554,585.79150444515676
2015-10-27 17:18:42.971597,555,587.24909175785604
2015-10-27 17:18:42.971652,555,588.7066790705552
2015-10-27 17:18:42.971690,555,590.16426638325447
2015-10-27 17:18:42.987653,555,591.62185369595375
2015-10-27 17:18:42.987758,552,593.07944100865291
2015-10-27 17:18:42.987832,549,594.53702832135218
2015-10-27 17:18:43.003584,548,595.99461563405134
2015-10-27 17:18:43.003640,549,597.45220294675062
2015-10-27 17:18:43.003679,551,598.90979025944978
2015-10-27 17:18:43.019555,556,600.36737757214905
2015-10-27 17:18:43.019662,564,601.80024104316374
2015-10-27 17:18:43.019741,572,602.63961760215216
2015-10-27 17:18:43.035546,572,603.10903230058614
2015-10-27 17:18:43.035602,566,603.39519982759589
2015-10-27 17:18:43.035642,564,603.54278802873307
2015-10-27 17:18:43.051717,563,603.63639587782643
2015-10-27 17:18:43.051813,559,603.69887742530761
2015-10-27 17:18:43.051881,555,603.70703186897424
2015-10-27 17:18:43.067618,552,603.69949624187791
2015-10-27 17:18:43.067728,551,603.68911858441686
2015-10-27 17:18:43.067798,550,603.67589889659109
2015-10-27 17:18:43.083570,549,603.65854308317512
2015-10-27 17:18:43.083680,548,603.64188077330027
2015-10-27 17:18:43.083750,548,603.62013499438035
2015-10-27 17:18:43.099772,547,603.59425308987022
2015-10-27 17:18:43.099883,546,603.57095937581107
2015-10-27 17:18:43.099952,546,603.55154794742839
2015-10-27 17:18:43.100018,546,603.53731289994778
2015-10-27 17:18:43.115653,547,603.52696013814364
2015-10-27 17:18:43.115745,548,603.51919556679059
2015-10-27 17:18:43.115814,558,603.51272509066303
2015-10-27 17:18:43.131595,577,603.51013690021205
2015-10-27 17:18:43.131686,607,603.50754870976095
2015-10-27 17:18:43.131754,652,603.50496051930998
2015-10-27 17:18:43.147621,710,603.50237232885888
2015-10-27 17:18:43.147712,763,603.4997841384079
2015-10-27 17:18:43.147779,760,603.49719594795693
2015-10-27 17:18:43.163764,643,603.49460775750595
2015-10-27 17:18:43.163857,458,603.47790232708803
2015-10-27 17:18:43.163926,391,603.03113095971503
2015-10-27 17:18:43.179517,418,602.50884418074884
2015-10-27 17:18:43.179582,461,601.98655740178276
2015-10-27 17:18:43.179632,489,601.46427062281668
2015-10-27 17:18:43.195530,512,600.94198384385061
2015-10-27 17:18:43.195585,527,600.41969706488442
2015-10-27 17:18:43.195625,535,599.89741028591834
2015-10-27 17:18:43.211562,539,599.37512350695226
2015-10-27 17:18:43.211760,543,598.85283672798619
2015-10-27 17:18:43.211818,545,598.33054994902
2015-10-27 17:18:43.227495,544,597.80826317005392
2015-10-27 17:18:43.227549,545,597.28597639108784
2015-10-27 17:18:43.227588,546,596.76368961212177
2015-10-27 17:18:43.243518,548,596.24140283315558
2015-10-27 17:18:43.243644,551,595.7191160541895
2015-10-27 17:18:43.243729,553,595.19682927522342
2015-10-27 17:18:43.259563,553,594.67454249625735
2015-10-27 17:18:43.259657,553,594.15225571729115
2015-10-27 17:18:43.259726,554,593.62996893832508
2015-10-27 17:18:43.275683,554,593.107682159359
2015-10-27 17:18:43.275780,555,592.58539538039292
2015-10-27 17:18:43.275849,558,592.06310860142685
2015-10-27 17:18:43.291833,559,591.54082182246066
2015-10-27 17:18:43.291957,559,591.01853504349458
2015-10-27 17:18:43.292047,561,590.49624826452839
2015-10-27 17:18:43.307726,563,589.97396148556231
2015-10-27 17:18:43.307838,564,589.45167470659624
2015-10-27 17:18:43.307908,567,588.92938792763016
2015-10-27 17:18:43.323713,569,588.40710114866397
2015-10-27 17:18:43.323823,570,587.88481436969789
2015-10-27 17:18:43.323893,573,587.3625275907317
2015-10-27 17:18:43.339719,576,586.84024081176563
2015-10-27 17:18:43.339862,579,586.32054222325053
2015-10-27 17:18:43.339932,583,585.80084363473543
2015-10-27 17:18:43.339998,586,585.28114504622033
2015-10-27 17:18:43.355816,589,584.76144645770523
2015-10-27 17:18:43.355926,591,584.24174786919014
2015-10-27 17:18:43.355994,592,583.72204928067504
2015-10-27 17:18:43.371831,591,583.20235069215994
2015-10-27 17:18:43.371924,589,582.68265210364484
2015-10-27 17:18:43.371992,587,582.16295351512974
2015-10-27 17:18:43.387800,582,581.64325492661465
2015-10-27 17:18:43.387894,574,581.23253240184215
2015-10-27 17:18:43.387961,567,580.82689334611473
2015-10-27 17:18:43.403679,561,580.42125429038742
2015-10-27 17:18:43.403773,556,580.01561523466
2015-10-27 17:18:43.403842,552,579.6099761789327
2015-10-27 17:18:43.419774,548,579.20433712320539
2015-10-27 17:18:43.419893,545,578.79869806747809
2015-10-27 17:18:43.419962,538,578.39305901175078
2015-10-27 17:18:43.435825,535,577.98741995602347
2015-10-27 17:18:43.435923,532,577.58178090029617
2015-10-27 17:18:43.435992,528,577.17614184456886
2015-10-27 17:18:43.451691,523,576.77050278884155
2015-10-27 17:18:43.451786,517,576.36486373311425
2015-10-27 17:18:43.451855,512,575.95922467738694
2015-10-27 17:18:43.467674,509,575.55358562165964
2015-10-27 17:18:43.467769,505,575.14794656593233
2015-10-27 17:18:43.467838,502,574.74230751020514
2015-10-27 17:18:43.483753,498,574.33666845447783
2015-10-27 17:18:43.483851,497,573.93102939875052
2015-10-27 17:18:43.483919,498,573.52539034302322
2015-10-27 17:18:43.499560,499,573.11975128729591
2015-10-27 17:18:43.499656,499,572.71411223156872
2015-10-27 17:18:43.499725,501,572.30847317584141
2015-10-27 17:18:43.515515,503,571.90283412011411
2015-10-27 17:18:43.515683,504,571.4971950643868
2015-10-27 17:18:43.515788,506,571.0915560086595
2015-10-27 17:18:43.531442,509,570.68591695293219
2015-10-27 17:18:43.531540,512,570.28027789720488
2015-10-27 17:18:43.531609,514,569.87463884147758
2015-10-27 17:18:43.547648,516,569.46899978575027
2015-10-27 17:18:43.547800,518,569.06336073002296
2015-10-27 17:18:43.547870,519,568.65772167429566
2015-10-27 17:18:43.563553,519,568.25208261856835
2015-10-27 17:18:43.563665,520,567.84644356284105
2015-10-27 17:18:43.563896,521,567.44080450711363
2015-10-27 17:18:43.579573,521,567.03516545138632
2015-10-27 17:18:43.579685,521,566.62952639565901
2015-10-27 17:18:43.579755,519,566.22388733993171
2015-10-27 17:18:43.579821,518,565.81824828420429
2015-10-27 17:18:43.595602,517,565.41260922847698
2015-10-27 17:18:43.595696,515,565.00697017274967
2015-10-27 17:18:43.595764,514,564.60133111702237
2015-10-27 17:18:43.611515,513,564.19569206129506
2015-10-27 17:18:43.611634,511,563.79005300556764
2015-10-27 17:18:43.611705,509,563.38441394984034
2015-10-27 17:18:43.627711,509,562.97877489411292
2015-10-27 17:18:43.627804,508,562.57313583838561
2015-10-27 17:18:43.627891,506,562.16749678265819
2015-10-27 17:18:43.643511,502,561.76185772693077
2015-10-27 17:18:43.643604,501,561.35621867120335
2015-10-27 17:18:43.643673,502,560.95057961547593
2015-10-27 17:18:43.659454,502,560.54494055974851
2015-10-27 17:18:43.659548,501,560.1393015040212
2015-10-27 17:18:43.659615,500,559.73366244829379
2015-10-27 17:18:43.675640,498,559.32802339256637
2015-10-27 17:18:43.675757,497,558.92238433683895
2015-10-27 17:18:43.675825,498,558.51674528111153
2015-10-27 17:18:43.691647,499,558.12522346535093
2015-10-27 17:18:43.691773,498,558.16376758654553
2015-10-27 17:18:43.691841,497,558.27782711933321
2015-10-27 17:18:43.707592,497,558.39188665212077
2015-10-27 17:18:43.707686,497,558.50594618490845
2015-10-27 17:18:43.707755,496,558.62000571769613
2015-10-27 17:18:43.723656,496,558.73406525048381
2015-10-27 17:18:43.723778,496,558.84812478327149
2015-10-27 17:18:43.723846,497,558.96218431605905
2015-10-27 17:18:43.739455,497,559.07624384884673
2015-10-27 17:18:43.739559,496,559.19030338163441
2015-10-27 17:18:43.739628,496,559.30436291442209
2015-10-27 17:18:43.755392,497,559.41842244720965
2015-10-27 17:18:43.755488,498,559.53248197999733
2015-10-27 17:18:43.755556,498,559.64654151278501
2015-10-27 17:18:43.771562,498,559.76060104557268
2015-10-27 17:18:43.771659,499,559.87466057836036
2015-10-27 17:18:43.771728,499,559.98872011114804
2015-10-27 17:18:43.787531,499,560.10277964393572
2015-10-27 17:18:43.787643,499,560.21683917672351
2015-10-27 17:18:43.787713,500,560.33089870951108
2015-10-27 17:18:43.803482,501,560.44495824229887
2015-10-27 17:18:43.803593,501,560.55901777508643
2015-10-27 17:18:43.803662,500,560.67307730787422
2015-10-27 17:18:43.819583,499,560.7871368406619
2015-10-27 17:18:43.819749,499,560.90119637344958
2015-10-27 17:18:43.819818,499,561.01525590623726
2015-10-27 17:18:43.819883,496,561.12931543902494
2015-10-27 17:18:43.835600,493,561.24337497181261
2015-10-27 17:18:43.835692,494,561.35743450460029
2015-10-27 17:18:43.835761,497,561.47149403738797
2015-10-27 17:18:43.851676,503,561.58555357017565
2015-10-27 17:18:43.851771,512,561.69961310296333
2015-10-27 17:18:43.851840,519,561.813672635751
2015-10-27 17:18:43.867393,520,561.92773216853868
2015-10-27 17:18:43.867487,516,562.04179170132636
2015-10-27 17:18:43.867555,513,562.15585123411404
2015-10-27 17:18:43.883565,514,562.26991076690172
2015-10-27 17:18:43.883660,513,562.38397029968939
2015-10-27 17:18:43.883728,510,562.49802983247707
2015-10-27 17:18:43.899624,508,562.61208936526475
2015-10-27 17:18:43.899742,504,562.72614889805243
2015-10-27 17:18:43.899811,502,562.84020843084011
2015-10-27 17:18:43.915543,501,562.84529189988518
2015-10-27 17:18:43.915636,501,562.84529189988518
2015-10-27 17:18:43.915704,501,562.84529189988518
2015-10-27 17:18:43.931764,502,562.84529189988518
2015-10-27 17:18:43.931858,501,562.84529189988518
2015-10-27 17:18:43.931926,499,562.84529189988518
2015-10-27 17:18:43.947584,499,562.84529189988518
2015-10-27 17:18:43.947677,500,562.84529189988518
2015-10-27 17:18:43.947875,499,562.84529189988518
2015-10-27 17:18:43.963577,502,562.84529189988518
2015-10-27 17:18:43.963672,517,562.84529189988518
2015-10-27 17:18:43.963741,546,562.84529189988518
2015-10-27 17:18:43.979491,597,562.84529189988518
2015-10-27 17:18:43.979588,671,562.84529189988518
2015-10-27 17:18:43.979657,740,562.84529189988518
2015-10-27 17:18:43.995469,796,562.84529189988518
2015-10-27 17:18:43.995566,721,562.84529189988518
2015-10-27 17:18:43.995634,520,562.84529189988518
2015-10-27 17:18:44.011554,386,562.50950909067865
2015-10-27 17:18:44.011652,377,562.07967876875125
2015-10-27 17:18:44.011721,423,561.64984844682374
2015-10-27 17:18:44.027464,454,561.22001812489634
2015-10-27 17:18:44.027616,473,560.79018780296883
2015-10-27 17:18:44.027686,485,560.36035748104143
2015-10-27 17:18:44.043473,490,559.93052715911404
2015-10-27 17:18:44.043593,493,559.50069683718652
2015-10-27 17:18:44.043663,498,559.07086651525913
2015-10-27 17:18:44.059480,499,558.64103619333173
2015-10-27 17:18:44.059639,500,558.21120587140422
2015-10-27 17:18:44.059709,501,557.78137554947682
2015-10-27 17:18:44.075443,503,557.35154522754942
2015-10-27 17:18:44.075638,505,556.92171490562191
2015-10-27 17:18:44.075710,507,556.49188458369451
2015-10-27 17:18:44.075776,509,556.06205426176712
2015-10-27 17:18:44.091488,510,555.63222393983961
2015-10-27 17:18:44.091581,510,555.20239361791221
2015-10-27 17:18:44.091650,511,554.7725632959847
2015-10-27 17:18:44.107583,512,554.3427329740573
2015-10-27 17:18:44.107675,513,553.9129026521299
2015-10-27 17:18:44.107743,516,553.48307233020239
2015-10-27 17:18:44.123487,518,553.05324200827499
2015-10-27 17:18:44.123579,519,552.62341168634759
2015-10-27 17:18:44.123648,521,552.19358136442008
2015-10-27 17:18:44.139543,524,551.76375104249269
2015-10-27 17:18:44.139661,526,551.33392072056529
2015-10-27 17:18:44.139730,527,550.90409039863778
2015-10-27 17:18:44.155537,529,550.47426007671038
2015-10-27 17:18:44.155655,532,550.04442975478287
2015-10-27 17:18:44.155722,535,549.61459943285547
2015-10-27 17:18:44.171330,539,549.18476911092807
2015-10-27 17:18:44.171487,543,548.75493878900056
2015-10-27 17:18:44.171673,545,548.32510846707316
2015-10-27 17:18:44.187185,548,547.89527814514577
2015-10-27 17:18:44.187245,552,547.46544782321826
2015-10-27 17:18:44.187284,554,547.03561750129086
2015-10-27 17:18:44.203277,556,546.60578717936346
2015-10-27 17:18:44.203377,558,546.17595685743595
2015-10-27 17:18:44.203499,557,545.74612653550855
2015-10-27 17:18:44.219208,554,545.37034458182484
2015-10-27 17:18:44.219305,548,544.96565286955251
2015-10-27 17:18:44.219373,543,544.56096115728019
2015-10-27 17:18:44.235237,539,544.15626944500787
2015-10-27 17:18:44.235307,533,543.75157773273565
2015-10-27 17:18:44.235354,528,543.34688602046333
2015-10-27 17:18:44.251172,524,542.94219430819112
2015-10-27 17:18:44.251230,522,542.53750259591891
2015-10-27 17:18:44.251275,519,542.13281088364658
2015-10-27 17:18:44.267192,514,541.72811917137437
2015-10-27 17:18:44.267261,511,541.32342745910216
2015-10-27 17:18:44.267308,507,540.91873574682984
2015-10-27 17:18:44.283176,504,540.51404403455763
2015-10-27 17:18:44.283243,501,540.10935232228542
2015-10-27 17:18:44.283283,497,539.70466061001321
2015-10-27 17:18:44.299378,494,539.29996889774088
2015-10-27 17:18:44.299491,492,538.89527718546867
2015-10-27 17:18:44.299560,490,538.49058547319646
2015-10-27 17:18:44.315432,488,538.08589376092414
2015-10-27 17:18:44.315544,486,537.68120204865193
2015-10-27 17:18:44.315613,483,537.27651033637972
2015-10-27 17:18:44.315679,483,536.87181862410739
2015-10-27 17:18:44.331352,484,536.46712691183518
2015-10-27 17:18:44.331484,484,536.06243519956297
2015-10-27 17:18:44.331568,485,535.65774348729065
2015-10-27 17:18:44.347577,486,535.25305177501843
2015-10-27 17:18:44.347672,487,534.84836006274611
2015-10-27 17:18:44.347739,488,534.4436683504739
2015-10-27 17:18:44.363561,489,534.03897663820169
2015-10-27 17:18:44.363657,491,533.63428492592936
2015-10-27 17:18:44.363726,493,533.22959321365715
2015-10-27 17:18:44.379457,494,532.82490150138494
2015-10-27 17:18:44.379552,496,532.42020978911262
2015-10-27 17:18:44.379620,497,532.01551807684029
2015-10-27 17:18:44.395280,500,531.61082636456808
2015-10-27 17:18:44.395439,503,531.20613465229576
2015-10-27 17:18:44.395658,504,530.80144294002355
2015-10-27 17:18:44.411515,504,530.39675122775122
2015-10-27 17:18:44.411634,505,529.9920595154789
2015-10-27 17:18:44.411702,506,529.58736780320669
2015-10-27 17:18:44.427250,506,529.18267609093436
2015-10-27 17:18:44.427344,506,528.77798437866204
2015-10-27 17:18:44.427413,507,528.3732926663896
2015-10-27 17:18:44.443450,507,527.96860095411728
2015-10-27 17:18:44.443558,507,527.56390924184495
2015-10-27 17:18:44.443627,506,527.15921752957263
2015-10-27 17:18:44.459152,506,526.7545258173003
2015-10-27 17:18:44.459246,504,526.34983410502787
2015-10-27 17:18:44.459314,502,525.94514239275554
2015-10-27 17:18:44.475388,500,525.54045068048322
2015-10-27 17:18:44.475518,500,525.13575896821078
2015-10-27 17:18:44.475588,499,524.73106725593846
2015-10-27 17:18:44.491351,497,524.32637554366613
2015-10-27 17:18:44.491448,496,523.92168383139381
2015-10-27 17:18:44.491516,496,523.51699211912137
2015-10-27 17:18:44.507324,498,523.11230040684893
2015-10-27 17:18:44.507420,498,522.70760869457661
2015-10-27 17:18:44.507489,497,522.30291698230428
2015-10-27 17:18:44.523341,496,521.89822527003196
2015-10-27 17:18:44.523506,496,521.49353355775963
2015-10-27 17:18:44.523575,495,521.42462465469373
2015-10-27 17:18:44.539331,497,521.4497632643488
2015-10-27 17:18:44.539496,498,521.47490187400388
2015-10-27 17:18:44.539565,497,521.50004048365895
2015-10-27 17:18:44.555325,498,521.52517909331391
2015-10-27 17:18:44.555489,497,521.55031770296898
2015-10-27 17:18:44.555558,497,521.57545631262406
2015-10-27 17:18:44.555622,497,521.60059492227902
2015-10-27 17:18:44.571446,497,521.62573353193409
2015-10-27 17:18:44.571539,497,521.65087214158916
2015-10-27 17:18:44.571606,497,521.67601075124423
2015-10-27 17:18:44.587198,497,521.70114936089931
2015-10-27 17:18:44.587291,498,521.72628797055438
2015-10-27 17:18:44.587379,497,521.75142658020934
2015-10-27 17:18:44.603191,497,521.77656518986453
2015-10-27 17:18:44.603284,497,521.8017037995196
2015-10-27 17:18:44.603352,498,521.82684240917456
2015-10-27 17:18:44.619393,498,521.85198101882963
2015-10-27 17:18:44.619509,498,521.87711962848471
2015-10-27 17:18:44.619577,497,521.90225823813978
2015-10-27 17:18:44.635240,496,521.92739684779485
2015-10-27 17:18:44.635334,495,521.95253545744981
2015-10-27 17:18:44.635402,495,521.977674067105
2015-10-27 17:18:44.651399,496,522.00281267676007
2015-10-27 17:18:44.651514,498,522.02795128641503
2015-10-27 17:18:44.651583,500,522.05308989607011
2015-10-27 17:18:44.667103,501,522.07822850572518
2015-10-27 17:18:44.667366,501,522.10336711538025
2015-10-27 17:18:44.667540,499,522.12850572503532
2015-10-27 17:18:44.683380,495,522.1536443346904
2015-10-27 17:18:44.683475,495,522.17878294434547
2015-10-27 17:18:44.683545,497,522.20392155400054
2015-10-27 17:18:44.699365,500,522.2290601636555
2015-10-27 17:18:44.699484,507,522.25419877331058
2015-10-27 17:18:44.699551,515,522.27933738296565
2015-10-27 17:18:44.715249,520,522.30447599262072
2015-10-27 17:18:44.715345,519,522.3296146022758
2015-10-27 17:18:44.715414,515,522.35475321193087
2015-10-27 17:18:44.731372,514,522.37989182158594
2015-10-27 17:18:44.731476,513,522.40503043124102
2015-10-27 17:18:44.731597,511,522.37612067265229
2015-10-27 17:18:44.747324,509,522.37612067265229
2015-10-27 17:18:44.747422,505,522.37612067265229
2015-10-27 17:18:44.747508,502,522.37612067265229
2015-10-27 17:18:44.763112,500,522.37612067265229
2015-10-27 17:18:44.763226,498,522.37612067265229
2015-10-27 17:18:44.763296,498,522.37612067265229
2015-10-27 17:18:44.779324,498,522.37612067265229
2015-10-27 17:18:44.779438,497,522.37612067265229
2015-10-27 17:18:44.779506,496,522.37612067265229
2015-10-27 17:18:44.795039,495,522.37612067265229
2015-10-27 17:18:44.795153,495,522.37612067265229
2015-10-27 17:18:44.795224,495,522.37612067265229
2015-10-27 17:18:44.795295,495,522.37612067265229
2015-10-27 17:18:44.811056,500,522.37612067265229
2015-10-27 17:18:44.811144,519,522.37612067265229
2015-10-27 17:18:44.811212,558,522.37612067265229
2015-10-27 17:18:44.827116,628,522.37612067265229
2015-10-27 17:18:44.827208,713,522.37612067265229
2015-10-27 17:18:44.827277,786,522.37612067265229
2015-10-27 17:18:44.843166,810,522.37612067265229
2015-10-27 17:18:44.843282,660,522.37612067265229
2015-10-27 17:18:44.843351,452,522.37870886310327
2015-10-27 17:18:44.859158,368,522.2171394543991
2015-10-27 17:18:44.859291,395,522.09180471200921
2015-10-27 17:18:44.859364,437,521.96646996961931
2015-10-27 17:18:44.875181,461,521.84113522722942
2015-10-27 17:18:44.875273,474,521.71580048483952
2015-10-27 17:18:44.875342,481,521.59046574244962
2015-10-27 17:18:44.891214,482,521.46513100005973
2015-10-27 17:18:44.891308,486,521.33979625766983
2015-10-27 17:18:44.891375,489,521.21446151527994
2015-10-27 17:18:44.907277,490,521.08912677289004
2015-10-27 17:18:44.907372,492,520.96379203050014
2015-10-27 17:18:44.907441,494,520.83845728811025
2015-10-27 17:18:44.923289,496,520.71312254572035
2015-10-27 17:18:44.923387,497,520.58778780333046
2015-10-27 17:18:44.923455,499,520.46245306094056
2015-10-27 17:18:44.939232,500,520.33711831855067
2015-10-27 17:18:44.939349,502,520.21178357616077
2015-10-27 17:18:44.939417,503,520.08644883377087
2015-10-27 17:18:44.955251,504,519.96111409138098
2015-10-27 17:18:44.955386,506,519.83577934899108
2015-10-27 17:18:44.955455,507,519.71044460660119
2015-10-27 17:18:44.971137,509,519.58510986421129
2015-10-27 17:18:44.971234,511,519.45977512182139
2015-10-27 17:18:44.971303,512,519.3344403794315
2015-10-27 17:18:44.987272,514,519.2091056370416
2015-10-27 17:18:44.987406,516,519.08377089465171
2015-10-27 17:18:44.987475,518,518.95843615226181
2015-10-27 17:18:45.003213,521,518.83310140987192
2015-10-27 17:18:45.003324,524,518.70776666748202
2015-10-27 17:18:45.003394,528,518.58243192509212
2015-10-27 17:18:45.019116,531,518.45709718270223
2015-10-27 17:18:45.019228,533,518.33176244031233
2015-10-27 17:18:45.019296,537,518.20642769792244
2015-10-27 17:18:45.035063,542,518.08109295553254
2015-10-27 17:18:45.035274,545,517.95575821314264
2015-10-27 17:18:45.035355,548,517.83042347075275
2015-10-27 17:18:45.035424,551,517.70508872836285
2015-10-27 17:18:45.051218,554,517.56369226778247
2015-10-27 17:18:45.051351,554,517.61751169176944
2015-10-27 17:18:45.051423,553,517.68329982889975
2015-10-27 17:18:45.067356,549,517.74908796603006
2015-10-27 17:18:45.067449,544,517.81487610316037
2015-10-27 17:18:45.067516,539,517.88066424029068
2015-10-27 17:18:45.083337,534,517.946452377421
2015-10-27 17:18:45.083432,529,518.01224051455119
2015-10-27 17:18:45.083500,523,518.07802865168151
2015-10-27 17:18:45.099232,519,518.14381678881182
2015-10-27 17:18:45.099326,516,518.20960492594213
2015-10-27 17:18:45.099394,513,518.27539306307244
2015-10-27 17:18:45.115279,510,518.34118120020275
2015-10-27 17:18:45.115374,505,518.40696933733307
2015-10-27 17:18:45.115443,501,518.47275747446326
2015-10-27 17:18:45.131327,498,518.53854561159358
2015-10-27 17:18:45.131444,495,518.60433374872389
2015-10-27 17:18:45.131513,491,518.6701218858542
2015-10-27 17:18:45.147170,489,518.73591002298451
2015-10-27 17:18:45.147263,487,518.80169816011482
2015-10-27 17:18:45.147332,484,518.86748629724514
2015-10-27 17:18:45.163369,482,518.93327443437545
2015-10-27 17:18:45.163467,480,518.99906257150576
2015-10-27 17:18:45.163556,479,519.06485070863607
2015-10-27 17:18:45.179079,478,519.13063884576627
2015-10-27 17:18:45.179175,477,519.19642698289658
2015-10-27 17:18:45.179269,478,519.26221512002689
2015-10-27 17:18:45.195318,479,519.32800325715721
2015-10-27 17:18:45.195411,482,519.39379139428752
2015-10-27 17:18:45.195498,484,519.45957953141783
2015-10-27 17:18:45.211240,486,519.52536766854803
2015-10-27 17:18:45.211364,487,519.59115580567834
2015-10-27 17:18:45.211433,488,519.65694394280865
2015-10-27 17:18:45.227166,490,519.72273207993896
2015-10-27 17:18:45.227263,491,519.78852021706916
2015-10-27 17:18:45.227331,494,519.85430835419947
2015-10-27 17:18:45.243304,496,519.92009649132979
2015-10-27 17:18:45.243426,497,519.9858846284601
2015-10-27 17:18:45.243495,499,520.0516727655903
2015-10-27 17:18:45.259153,500,520.1174609027205
2015-10-27 17:18:45.259266,501,520.18324903985069
2015-10-27 17:18:45.259336,501,520.24903717698089
2015-10-27 17:18:45.275104,503,520.31482531411109
2015-10-27 17:18:45.275219,504,520.38061345124129
2015-10-27 17:18:45.275290,505,520.44640158837149
2015-10-27 17:18:45.291168,505,520.5121897255018
2015-10-27 17:18:45.291319,504,520.57797786263188
2015-10-27 17:18:45.291388,504,520.64376599976208
2015-10-27 17:18:45.291453,504,520.70955413689239
2015-10-27 17:18:45.307019,504,520.77534227402259
2015-10-27 17:18:45.307111,505,520.84113041115279
2015-10-27 17:18:45.307179,504,520.90691854828299
2015-10-27 17:18:45.323180,504,520.97270668541319
2015-10-27 17:18:45.323274,504,521.03849482254338
2015-10-27 17:18:45.323342,502,521.10428295967358
2015-10-27 17:18:45.339219,501,521.17007109680378
2015-10-27 17:18:45.339312,502,521.23585923393409
2015-10-27 17:18:45.339381,501,521.30164737106429
2015-10-27 17:18:45.355285,500,521.36743550819438
2015-10-27 17:18:45.355404,500,521.43322364532469
2015-10-27 17:18:45.355472,500,521.49901178245489
2015-10-27 17:18:45.371248,499,521.56479991958508
2015-10-27 17:18:45.371341,499,521.62799986626419
2015-10-27 17:18:45.371409,498,521.85535741209856
2015-10-27 17:18:45.387186,499,522.04648029161854
2015-10-27 17:18:45.387279,499,522.23760317113863
2015-10-27 17:18:45.387347,501,522.42872605065872
2015-10-27 17:18:45.403174,500,522.6198489301787
2015-10-27 17:18:45.403267,500,522.8109718096988
2015-10-27 17:18:45.403334,502,523.00209468921889
2015-10-27 17:18:45.419176,503,523.19321756873887
2015-10-27 17:18:45.419271,502,523.38434044825897
2015-10-27 17:18:45.419339,500,523.57546332777906
2015-10-27 17:18:45.435095,500,523.76658620729916
2015-10-27 17:18:45.435190,500,523.95770908681925
2015-10-27 17:18:45.435258,502,524.14883196633934
2015-10-27 17:18:45.451152,502,524.33995484585944
2015-10-27 17:18:45.451327,502,524.53107772537942
2015-10-27 17:18:45.451405,501,524.72220060489963
2015-10-27 17:18:45.467056,501,524.91332348441961
2015-10-27 17:18:45.467152,502,525.1044463639397
2015-10-27 17:18:45.467221,501,525.29556924345979
2015-10-27 17:18:45.483022,501,525.48669212297989
2015-10-27 17:18:45.483118,502,525.67781500249998
2015-10-27 17:18:45.483186,502,525.86893788202008
2015-10-27 17:18:45.499120,503,526.06006076154006
2015-10-27 17:18:45.499285,504,526.25118364106015
2015-10-27 17:18:45.499355,504,526.44230652058025
2015-10-27 17:18:45.515026,504,526.63342940010034
2015-10-27 17:18:45.515138,504,526.82455227962032
2015-10-27 17:18:45.515208,503,527.01567515914041
2015-10-27 17:18:45.531040,499,527.20679803866051
2015-10-27 17:18:45.531152,496,527.3979209181806
2015-10-27 17:18:45.531222,496,527.58904379770058
2015-10-27 17:18:45.531287,500,527.78016667722068
2015-10-27 17:18:45.546957,505,527.97128955674077
2015-10-27 17:18:45.547052,514,528.16241243626075
2015-10-27 17:18:45.547119,523,528.35353531578096
2015-10-27 17:18:45.563158,526,528.54465819530094
2015-10-27 17:18:45.563252,522,528.73578107482103
2015-10-27 17:18:45.563319,518,528.94296567253161
2015-10-27 17:18:45.579270,518,528.95493438567485
2015-10-27 17:18:45.579364,516,528.95493438567485
2015-10-27 17:18:45.579434,513,528.95493438567485
2015-10-27 17:18:45.595172,511,528.95493438567485
2015-10-27 17:18:45.595267,509,528.95493438567485
2015-10-27 17:18:45.595336,507,528.95493438567485
2015-10-27 17:18:45.611053,505,528.95493438567485
2015-10-27 17:18:45.611147,503,528.95493438567485
2015-10-27 17:18:45.611215,503,528.95493438567485
2015-10-27 17:18:45.627206,502,528.95493438567485
2015-10-27 17:18:45.627328,502,528.95493438567485
2015-10-27 17:18:45.627399,502,528.95493438567485
2015-10-27 17:18:45.643368,502,528.95493438567485
2015-10-27 17:18:45.643570,501,528.95493438567485
2015-10-27 17:18:45.643756,501,528.95493438567485
2015-10-27 17:18:45.659142,504,528.95493438567485
2015-10-27 17:18:45.659238,516,528.95493438567485
2015-10-27 17:18:45.659307,544,528.95493438567485
2015-10-27 17:18:45.675137,598,528.95493438567485
2015-10-27 17:18:45.675232,680,528.95493438567485
2015-10-27 17:18:45.675301,757,528.95493438567485
2015-10-27 17:18:45.690841,824,528.95493438567485
2015-10-27 17:18:45.690914,760,528.95493438567485
2015-10-27 17:18:45.690961,552,528.95493438567485
2015-10-27 17:18:45.706868,394,528.87184022644249
2015-10-27 17:18:45.707034,374,528.67355336725359
2015-10-27 17:18:45.707187,421,528.47526650806469
2015-10-27 17:18:45.722866,455,528.27697964887579
2015-10-27 17:18:45.722938,476,528.0786927896869
2015-10-27 17:18:45.722988,486,527.880405930498
2015-10-27 17:18:45.738811,489,527.6821190713091
2015-10-27 17:18:45.738896,495,527.48383221212032
2015-10-27 17:18:45.738948,501,527.28554535293142
2015-10-27 17:18:45.754781,503,527.08725849374252
2015-10-27 17:18:45.754872,502,526.88897163455363
2015-10-27 17:18:45.754920,503,526.69068477536473
2015-10-27 17:18:45.770796,506,526.49239791617583
2015-10-27 17:18:45.771028,508,526.29411105698694
2015-10-27 17:18:45.771102,511,526.09582419779804
2015-10-27 17:18:45.771157,512,525.89753733860925
2015-10-27 17:18:45.786821,515,525.69925047942036
2015-10-27 17:18:45.786900,516,525.50096362023146
2015-10-27 17:18:45.786945,517,525.30267676104256
2015-10-27 17:18:45.802850,517,525.10438990185366
2015-10-27 17:18:45.802915,518,524.90610304266477
2015-10-27 17:18:45.802962,520,524.70781618347587
2015-10-27 17:18:45.818925,522,524.50952932428697
2015-10-27 17:18:45.818997,525,524.31124246509808
2015-10-27 17:18:45.819044,526,524.11295560590929
2015-10-27 17:18:45.834844,529,523.91466874672039
2015-10-27 17:18:45.834898,531,523.7163818875315
2015-10-27 17:18:45.834937,531,523.5180950283426
2015-10-27 17:18:45.851083,534,523.3198081691537
2015-10-27 17:18:45.851190,538,523.12152130996481
2015-10-27 17:18:45.851277,540,522.92323445077591
2015-10-27 17:18:45.866849,543,522.72494759158701
2015-10-27 17:18:45.866949,547,522.52666073239823
2015-10-27 17:18:45.867114,551,522.32837387320933
2015-10-27 17:18:45.882882,555,522.13008701402043
2015-10-27 17:18:45.882976,557,521.93180015483154
2015-10-27 17:18:45.883045,561,521.73351329564264
2015-10-27 17:18:45.898809,563,521.53522643645374
2015-10-27 17:18:45.898903,564,521.50181557561825
2015-10-27 17:18:45.898972,562,521.50597659686548
2015-10-27 17:18:45.915078,560,521.48684390405356
2015-10-27 17:18:45.915201,556,521.46771121124175
2015-10-27 17:18:45.915269,551,521.44857851842983
2015-10-27 17:18:45.930771,546,521.42944582561802
2015-10-27 17:18:45.930868,541,521.4103131328061
2015-10-27 17:18:45.930937,537,521.39118043999417
2015-10-27 17:18:45.946802,532,521.37204774718236
2015-10-27 17:18:45.946959,527,521.35291505437044
2015-10-27 17:18:45.947087,523,521.33378236155852
2015-10-27 17:18:45.962780,519,521.31464966874671
2015-10-27 17:18:45.962848,515,521.29551697593479
2015-10-27 17:18:45.962903,511,521.27638428312298
2015-10-27 17:18:45.978690,506,521.25725159031106
2015-10-27 17:18:45.978764,503,521.23811889749925
2015-10-27 17:18:45.978823,501,521.21898620468733
2015-10-27 17:18:45.994677,498,521.19985351187552
2015-10-27 17:18:45.994746,494,521.18072081906359
2015-10-27 17:18:45.994794,491,521.16158812625179
2015-10-27 17:18:46.010744,488,521.14245543343986
2015-10-27 17:18:46.010822,486,521.12332274062805
2015-10-27 17:18:46.010870,484,521.10419004781613
2015-10-27 17:18:46.010915,482,521.08505735500421
2015-10-27 17:18:46.026777,482,521.0659246621924
2015-10-27 17:18:46.026872,481,521.04679196938048
2015-10-27 17:18:46.026957,481,521.02765927656856
2015-10-27 17:18:46.043161,484,521.00852658375675
2015-10-27 17:18:46.043254,486,520.98939389094483
2015-10-27 17:18:46.043322,488,520.97026119813302
2015-10-27 17:18:46.059033,490,520.95112850532109
2015-10-27 17:18:46.059126,492,520.93199581250929
2015-10-27 17:18:46.059194,494,520.91286311969736
2015-10-27 17:18:46.074792,496,520.89373042688555
2015-10-27 17:18:46.074889,497,520.87459773407363
2015-10-27 17:18:46.075018,498,520.85546504126182
2015-10-27 17:18:46.090752,498,520.8363323484499
2015-10-27 17:18:46.090843,499,520.81719965563809
2015-10-27 17:18:46.090910,501,520.79806696282617
2015-10-27 17:18:46.107037,501,520.77893427001436
2015-10-27 17:18:46.107153,502,520.75980157720244
2015-10-27 17:18:46.107222,504,520.74066888439052
2015-10-27 17:18:46.123014,506,520.72153619157859
2015-10-27 17:18:46.123108,506,520.70240349876678
2015-10-27 17:18:46.123177,506,520.68327080595475
2015-10-27 17:18:46.138999,504,520.66413811314294
2015-10-27 17:18:46.139125,504,520.6450054203309
2015-10-27 17:18:46.139193,504,520.62587272751909
2015-10-27 17:18:46.154913,504,520.60674003470717
2015-10-27 17:18:46.155008,503,520.58760734189525
2015-10-27 17:18:46.155076,502,520.56847464908333
2015-10-27 17:18:46.171013,500,520.54934195627152
2015-10-27 17:18:46.171107,498,520.5302092634596
2015-10-27 17:18:46.171177,497,520.51107657064767
2015-10-27 17:18:46.186659,497,520.49194387783575
2015-10-27 17:18:46.186727,496,520.47281118502394
2015-10-27 17:18:46.186775,496,520.45367849221202
2015-10-27 17:18:46.202660,496,520.4345457994001
2015-10-27 17:18:46.202716,495,520.41541310658818
2015-10-27 17:18:46.202754,494,520.39628041377625
2015-10-27 17:18:46.218654,494,520.37714772096433
2015-10-27 17:18:46.218710,494,520.35801502815241
2015-10-27 17:18:46.218748,494,520.42197649457285
2015-10-27 17:18:46.234641,492,520.60113066094982
2015-10-27 17:18:46.234746,489,520.7802848273268
2015-10-27 17:18:46.234819,491,520.95943899370366
2015-10-27 17:18:46.250609,492,521.13859316008063
2015-10-27 17:18:46.250716,491,521.31774732645761
2015-10-27 17:18:46.250787,489,521.49690149283458
2015-10-27 17:18:46.266763,489,521.67605565921144
2015-10-27 17:18:46.266924,489,521.8552098255883
2015-10-27 17:18:46.266994,488,522.03436399196528
2015-10-27 17:18:46.267061,489,522.21351815834225
2015-10-27 17:18:46.282874,489,522.39267232471911
2015-10-27 17:18:46.282971,487,522.57182649109598
2015-10-27 17:18:46.283050,485,522.75098065747295
2015-10-27 17:18:46.298834,483,522.93013482384993
2015-10-27 17:18:46.298928,482,523.10928899022679
2015-10-27 17:18:46.299041,481,523.28844315660365
2015-10-27 17:18:46.314730,482,523.46759732298062
2015-10-27 17:18:46.314824,483,523.6467514893576
2015-10-27 17:18:46.314893,481,523.82590565573446
2015-10-27 17:18:46.330657,478,524.00505982211143
2015-10-27 17:18:46.330747,477,524.18421398848841
2015-10-27 17:18:46.330816,475,524.36336815486527
2015-10-27 17:18:46.346647,474,524.54252232124213
2015-10-27 17:18:46.346743,474,524.72167648761911
2015-10-27 17:18:46.346812,474,524.90083065399608
2015-10-27 17:18:46.362628,471,525.07998482037294
2015-10-27 17:18:46.362723,467,525.2591389867498
2015-10-27 17:18:46.363086,463,525.43829315312678
2015-10-27 17:18:46.378637,461,525.61744731950375
2015-10-27 17:18:46.378727,461,525.79660148588061
2015-10-27 17:18:46.378774,463,525.97575565225759
2015-10-27 17:18:46.394615,468,526.15490981863445
2015-10-27 17:18:46.394673,476,526.33406398501143
2015-10-27 17:18:46.394712,481,526.51321815138829
2015-10-27 17:18:46.410675,479,526.69237231776526
2015-10-27 17:18:46.410893,472,526.87152648414212
2015-10-27 17:18:46.410989,468,527.0506806505191
2015-10-27 17:18:46.426638,466,527.06495881854266
2015-10-27 17:18:46.426735,462,527.04166510448351
2015-10-27 17:18:46.426824,457,527.04166510448351
2015-10-27 17:18:46.442682,452,527.04554739015998
2015-10-27 17:18:46.442841,450,527.05201786628754
2015-10-27 17:18:46.442967,448,527.06107653286608
2015-10-27 17:18:46.458742,445,527.0740174851212
2015-10-27 17:18:46.458838,442,527.09084072305279
2015-10-27 17:18:46.458907,440,527.11025215143536
2015-10-27 17:18:46.474771,440,527.12966357981793
2015-10-27 17:18:46.474885,438,527.15166319865159
2015-10-27 17:18:46.474953,433,527.18013329361281
2015-10-27 17:18:46.490817,430,527.21248567425039
2015-10-27 17:18:46.490932,428,527.24742624533917
2015-10-27 17:18:46.491002,429,527.28236681642795
2015-10-27 17:18:46.506797,437,527.31730738751662
2015-10-27 17:18:46.506959,451,527.3522479586054
2015-10-27 17:18:46.507030,477,527.38718852969407
2015-10-27 17:18:46.507096,515,527.42212910078285
2015-10-27 17:18:46.522749,570,527.45706967187164
2015-10-27 17:18:46.522872,620,527.4920102429603
2015-10-27 17:18:46.522944,635,527.52695081404909
2015-10-27 17:18:46.538812,539,527.56189138513776
2015-10-27 17:18:46.538971,354,527.2814759350573
2015-10-27 17:18:46.539099,261,526.37471351248519
2015-10-27 17:18:46.554821,272,524.7630608517502
2015-10-27 17:18:46.554894,318,523.09659830303019
2015-10-27 17:18:46.554969,346,521.44048851611433
2015-10-27 17:18:46.570807,368,519.78437872919858
2015-10-27 17:18:46.570903,381,518.12826894228272
2015-10-27 17:18:46.570973,389,516.47215915536685
2015-10-27 17:18:46.586771,391,514.81604936845099
2015-10-27 17:18:46.586866,393,513.15993958153513
2015-10-27 17:18:46.586935,394,511.50382979461938
2015-10-27 17:18:46.602641,393,509.84772000770351
2015-10-27 17:18:46.602797,390,508.19161022078765
2015-10-27 17:18:46.602923,388,506.53550043387179
2015-10-27 17:18:46.618622,387,504.87939064695593
2015-10-27 17:18:46.618794,386,503.22328086004018
2015-10-27 17:18:46.618951,385,501.56717107312431
2015-10-27 17:18:46.634662,384,499.91106128620845
2015-10-27 17:18:46.634761,384,498.25495149929259
2015-10-27 17:18:46.634831,384,496.59884171237672
2015-10-27 17:18:46.650628,382,494.94273192546098
2015-10-27 17:18:46.650720,380,493.28662213854506
2015-10-27 17:18:46.650788,381,491.63051235162931
2015-10-27 17:18:46.666564,379,489.9744025647135
2015-10-27 17:18:46.666635,378,488.31829277779764
2015-10-27 17:18:46.666684,379,486.66218299088189
2015-10-27 17:18:46.682517,380,485.00607320396603
2015-10-27 17:18:46.682574,380,483.34996341705028
2015-10-27 17:18:46.682613,381,481.69385363013441
2015-10-27 17:18:46.698494,381,480.03774384321866
2015-10-27 17:18:46.698554,381,478.38163405630274
2015-10-27 17:18:46.698594,382,476.72552426938699
2015-10-27 17:18:46.714540,384,475.06941448247113
2015-10-27 17:18:46.714623,387,473.41330469555527
2015-10-27 17:18:46.714671,388,471.75719490863946
2015-10-27 17:18:46.730526,389,470.1010851217236
2015-10-27 17:18:46.730594,390,468.44497533480779
2015-10-27 17:18:46.730633,390,466.78886554789193
2015-10-27 17:18:46.746469,388,465.13275576097607
2015-10-27 17:18:46.746593,387,463.47664597406026
2015-10-27 17:18:46.746663,383,461.8205361871444
2015-10-27 17:18:46.746730,377,460.16442640022865
2015-10-27 17:18:46.762554,371,458.50831661331279
2015-10-27 17:18:46.762647,364,456.85220682639704
2015-10-27 17:18:46.762717,354,455.19609703948117
2015-10-27 17:18:46.778600,347,453.53998725256542
2015-10-27 17:18:46.778693,342,451.88905384655163
2015-10-27 17:18:46.778761,335,450.24717910711649
2015-10-27 17:18:46.794540,330,448.61177484380875
2015-10-27 17:18:46.794616,325,446.98284105662867
2015-10-27 17:18:46.794671,320,445.36037774557605
2015-10-27 17:18:46.810684,315,443.73377830893327
2015-10-27 17:18:46.810777,309,442.09761252588441
2015-10-27 17:18:46.810845,302,440.45352124342583
2015-10-27 17:18:46.826658,295,438.80279855678282
2015-10-27 17:18:46.826751,290,437.14992734331622
2015-10-27 17:18:46.826819,287,435.49680228993606
2015-10-27 17:18:46.842518,282,433.83635232883017
2015-10-27 17:18:46.842612,275,432.16668277308895
2015-10-27 17:18:46.842681,271,430.49098240484767
2015-10-27 17:18:46.858527,267,428.78346223145297
2015-10-27 17:18:46.858684,265,427.0515400724874
2015-10-27 17:18:46.858798,263,425.3035810909883
2015-10-27 17:18:46.874528,264,423.55596886125971
2015-10-27 17:18:46.874930,264,421.80965072675673
2015-10-27 17:18:46.875038,265,420.06333259225369
2015-10-27 17:18:46.890509,266,418.3170144577507
2015-10-27 17:18:46.890604,265,416.5706963232476
2015-10-27 17:18:46.890672,266,414.82437818874456
2015-10-27 17:18:46.906495,266,413.07806005424158
2015-10-27 17:18:46.906592,266,411.33174191973853
2015-10-27 17:18:46.906691,269,409.58542378523543
2015-10-27 17:18:46.922469,271,407.83910565073234
2015-10-27 17:18:46.922566,272,406.09278751622924
2015-10-27 17:18:46.922636,274,404.34646938172614
2015-10-27 17:18:46.938636,273,402.60015124722304
2015-10-27 17:18:46.938789,273,400.85383311271994
2015-10-27 17:18:46.938906,275,399.10751497821701
2015-10-27 17:18:46.954404,274,397.3611968437138
2015-10-27 17:18:46.954484,274,395.6148787092107
2015-10-27 17:18:46.954532,273,393.86467828903108
2015-10-27 17:18:46.970585,273,392.11188967840042
2015-10-27 17:18:46.970697,272,390.35651287731866
2015-10-27 17:18:46.970772,269,388.59725379056061
2015-10-27 17:18:46.986719,266,386.83411241812587
2015-10-27 17:18:46.986831,266,385.06838285524015
2015-10-27 17:18:46.986900,268,383.30265329235448
2015-10-27 17:18:46.986965,268,381.53433553901772
2015-10-27 17:18:47.002589,266,379.7595473095534
2015-10-27 17:18:47.002680,265,377.98087679441255
2015-10-27 17:18:47.002747,262,376.1890114871029
2015-10-27 17:18:47.018845,261,374.38783367330103
2015-10-27 17:18:47.018940,261,372.58570851604418
2015-10-27 17:18:47.019008,261,370.78487745401293
2015-10-27 17:18:47.034717,261,368.98404639198162
2015-10-27 17:18:47.034810,259,367.17355607168741
2015-10-27 17:18:47.034879,258,365.34150579618705
2015-10-27 17:18:47.050653,256,363.48694822202555
2015-10-27 17:18:47.050746,258,361.63273739963466
2015-10-27 17:18:47.050814,260,359.77852657724378
2015-10-27 17:18:47.066788,258,358.24096587124762
2015-10-27 17:18:47.066904,258,357.32975213774307
2015-10-27 17:18:47.066972,258,357.12342864240151
2015-10-27 17:18:47.082677,258,356.97191503504484
