2015-10-27 17:18:32.031370, 585
2015-10-27 17:18:33.518352, 585
2015-10-27 17:18:33.518522, 585
2015-10-27 17:18:33.519531, 585
2015-10-27 17:18:33.534031, 584
2015-10-27 17:18:33.534196, 584
2015-10-27 17:18:33.534291, 584
2015-10-27 17:18:33.550050, 584
2015-10-27 17:18:33.550368, 584
2015-10-27 17:18:33.550495, 583
2015-10-27 17:18:33.565977, 583
2015-10-27 17:18:33.566046, 582
2015-10-27 17:18:33.566085, 582
2015-10-27 17:18:33.582001, 582
2015-10-27 17:18:33.582321, 582
2015-10-27 17:18:33.582417, 581
2015-10-27 17:18:33.597944, 581
2015-10-27 17:18:33.598060, 580
2015-10-27 17:18:33.598133, 581
2015-10-27 17:18:33.598208, 580
2015-10-27 17:18:33.614199, 579
2015-10-27 17:18:33.614309, 580
2015-10-27 17:18:33.614371, 580
2015-10-27 17:18:33.630052, 581
2015-10-27 17:18:33.630143, 580
2015-10-27 17:18:33.630211, 579
2015-10-27 17:18:33.646057, 578
2015-10-27 17:18:33.646191, 579
2015-10-27 17:18:33.646249, 579
2015-10-27 17:18:33.662017, 579
2015-10-27 17:18:33.662108, 581
2015-10-27 17:18:33.662178, 580
2015-10-27 17:18:33.677909, 581
2015-10-27 17:18:33.677964, 582
2015-10-27 17:18:33.678044, 582
2015-10-27 17:18:33.694365, 582
2015-10-27 17:18:33.694457, 581
2015-10-27 17:18:33.694534, 581
2015-10-27 17:18:33.709920, 581
2015-10-27 17:18:33.709978, 582
2015-10-27 17:18:33.710030, 582
2015-10-27 17:18:33.725946, 584
2015-10-27 17:18:33.726003, 584
2015-10-27 17:18:33.726041, 580
2015-10-27 17:18:33.742022, 578
2015-10-27 17:18:33.742634, 579
2015-10-27 17:18:33.742875, 583
2015-10-27 17:18:33.757905, 589
2015-10-27 17:18:33.758057, 598
2015-10-27 17:18:33.758146, 606
2015-10-27 17:18:33.773924, 607
2015-10-27 17:18:33.773993, 604
2015-10-27 17:18:33.774039, 600
2015-10-27 17:18:33.789894, 599
2015-10-27 17:18:33.789962, 599
2015-10-27 17:18:33.790000, 596
2015-10-27 17:18:33.805916, 595
2015-10-27 17:18:33.806027, 593
2015-10-27 17:18:33.806097, 592
2015-10-27 17:18:33.821891, 591
2015-10-27 17:18:33.822021, 589
2015-10-27 17:18:33.822116, 588
2015-10-27 17:18:33.837863, 586
2015-10-27 17:18:33.838020, 586
2015-10-27 17:18:33.838095, 586
2015-10-27 17:18:33.838167, 588
2015-10-27 17:18:33.859567, 587
2015-10-27 17:18:33.859698, 588
2015-10-27 17:18:33.859768, 593
2015-10-27 17:18:33.875958, 605
2015-10-27 17:18:33.876057, 629
2015-10-27 17:18:33.876136, 673
2015-10-27 17:18:33.886694, 742
2015-10-27 17:18:33.886773, 812
2015-10-27 17:18:33.886831, 871
2015-10-27 17:18:33.902569, 821
2015-10-27 17:18:33.902654, 629
2015-10-27 17:18:33.902722, 469
2015-10-27 17:18:33.917848, 449
2015-10-27 17:18:33.917915, 496
2015-10-27 17:18:33.917962, 531
2015-10-27 17:18:33.933871, 555
2015-10-27 17:18:33.933967, 572
2015-10-27 17:18:33.934043, 583
2015-10-27 17:18:33.949853, 586
2015-10-27 17:18:33.949945, 589
2015-10-27 17:18:33.949987, 591
2015-10-27 17:18:33.965847, 591
2015-10-27 17:18:33.965902, 593
2015-10-27 17:18:33.965939, 594
2015-10-27 17:18:33.981882, 595
2015-10-27 17:18:33.981992, 596
2015-10-27 17:18:33.982084, 597
2015-10-27 17:18:33.997805, 599
2015-10-27 17:18:33.997893, 601
2015-10-27 17:18:33.997936, 603
2015-10-27 17:18:34.013842, 604
2015-10-27 17:18:34.013904, 604
2015-10-27 17:18:34.013943, 604
2015-10-27 17:18:34.029797, 605
2015-10-27 17:18:34.029852, 607
2015-10-27 17:18:34.029891, 609
2015-10-27 17:18:34.045830, 612
2015-10-27 17:18:34.045940, 614
2015-10-27 17:18:34.046009, 615
2015-10-27 17:18:34.061925, 618
2015-10-27 17:18:34.062148, 622
2015-10-27 17:18:34.062355, 624
2015-10-27 17:18:34.078050, 627
2015-10-27 17:18:34.078183, 631
2015-10-27 17:18:34.078262, 634
2015-10-27 17:18:34.078336, 637
2015-10-27 17:18:34.093864, 641
2015-10-27 17:18:34.093974, 643
2015-10-27 17:18:34.094055, 645
2015-10-27 17:18:34.109932, 646
2015-10-27 17:18:34.110034, 646
2015-10-27 17:18:34.110087, 642
2015-10-27 17:18:34.125858, 638
2015-10-27 17:18:34.125967, 633
2015-10-27 17:18:34.126058, 629
2015-10-27 17:18:34.141820, 624
2015-10-27 17:18:34.141874, 619
2015-10-27 17:18:34.141913, 614
2015-10-27 17:18:34.158020, 609
2015-10-27 17:18:34.158113, 605
2015-10-27 17:18:34.158182, 599
2015-10-27 17:18:34.173930, 591
2015-10-27 17:18:34.174088, 585
2015-10-27 17:18:34.174223, 580
2015-10-27 17:18:34.189855, 576
2015-10-27 17:18:34.189954, 571
2015-10-27 17:18:34.190031, 567
2015-10-27 17:18:34.205814, 564
2015-10-27 17:18:34.205907, 561
2015-10-27 17:18:34.205979, 559
2015-10-27 17:18:34.221749, 558
2015-10-27 17:18:34.221804, 555
2015-10-27 17:18:34.221843, 553
2015-10-27 17:18:34.237963, 551
2015-10-27 17:18:34.238059, 549
2015-10-27 17:18:34.238128, 550
2015-10-27 17:18:34.253790, 551
2015-10-27 17:18:34.253889, 552
2015-10-27 17:18:34.253959, 552
2015-10-27 17:18:34.269790, 553
2015-10-27 17:18:34.269885, 557
2015-10-27 17:18:34.269953, 560
2015-10-27 17:18:34.285934, 563
2015-10-27 17:18:34.286047, 565
2015-10-27 17:18:34.286116, 567
2015-10-27 17:18:34.301874, 569
2015-10-27 17:18:34.301985, 570
2015-10-27 17:18:34.302055, 573
2015-10-27 17:18:34.317928, 575
2015-10-27 17:18:34.318040, 578
2015-10-27 17:18:34.318110, 580
2015-10-27 17:18:34.333932, 580
2015-10-27 17:18:34.334045, 581
2015-10-27 17:18:34.334115, 583
2015-10-27 17:18:34.334180, 582
2015-10-27 17:18:34.349931, 581
2015-10-27 17:18:34.350024, 580
2015-10-27 17:18:34.350092, 580
2015-10-27 17:18:34.365906, 578
2015-10-27 17:18:34.366000, 578
2015-10-27 17:18:34.366068, 578
2015-10-27 17:18:34.381894, 577
2015-10-27 17:18:34.381988, 576
2015-10-27 17:18:34.382057, 575
2015-10-27 17:18:34.397935, 573
2015-10-27 17:18:34.398029, 573
2015-10-27 17:18:34.398098, 572
2015-10-27 17:18:34.413864, 571
2015-10-27 17:18:34.413957, 569
2015-10-27 17:18:34.414025, 570
2015-10-27 17:18:34.429962, 569
2015-10-27 17:18:34.430111, 568
2015-10-27 17:18:34.430237, 568
2015-10-27 17:18:34.446101, 568
2015-10-27 17:18:34.446242, 566
2015-10-27 17:18:34.446320, 566
2015-10-27 17:18:34.461979, 567
2015-10-27 17:18:34.462079, 568
2015-10-27 17:18:34.462176, 567
2015-10-27 17:18:34.477948, 566
2015-10-27 17:18:34.478042, 566
2015-10-27 17:18:34.478111, 566
2015-10-27 17:18:34.493897, 566
2015-10-27 17:18:34.493993, 565
2015-10-27 17:18:34.494061, 565
2015-10-27 17:18:34.509868, 566
2015-10-27 17:18:34.509964, 566
2015-10-27 17:18:34.510034, 566
2015-10-27 17:18:34.525903, 564
2015-10-27 17:18:34.525999, 564
2015-10-27 17:18:34.526088, 564
2015-10-27 17:18:34.541894, 566
2015-10-27 17:18:34.542054, 567
2015-10-27 17:18:34.542124, 567
2015-10-27 17:18:34.557709, 564
2015-10-27 17:18:34.557884, 560
2015-10-27 17:18:34.558013, 557
2015-10-27 17:18:34.573955, 560
2015-10-27 17:18:34.574125, 564
2015-10-27 17:18:34.574205, 571
2015-10-27 17:18:34.574272, 578
2015-10-27 17:18:34.589979, 583
2015-10-27 17:18:34.590120, 584
2015-10-27 17:18:34.590228, 580
2015-10-27 17:18:34.605846, 577
2015-10-27 17:18:34.605938, 576
2015-10-27 17:18:34.606006, 576
2015-10-27 17:18:34.621846, 571
2015-10-27 17:18:34.621938, 568
2015-10-27 17:18:34.622006, 563
2015-10-27 17:18:34.637841, 561
2015-10-27 17:18:34.637934, 559
2015-10-27 17:18:34.638002, 557
2015-10-27 17:18:34.653839, 555
2015-10-27 17:18:34.653932, 555
2015-10-27 17:18:34.654000, 552
2015-10-27 17:18:34.669779, 550
2015-10-27 17:18:34.669871, 552
2015-10-27 17:18:34.669940, 549
2015-10-27 17:18:34.685828, 547
2015-10-27 17:18:34.685922, 548
2015-10-27 17:18:34.685990, 560
2015-10-27 17:18:34.701861, 591
2015-10-27 17:18:34.701954, 653
2015-10-27 17:18:34.702022, 743
2015-10-27 17:18:34.717733, 823
2015-10-27 17:18:34.717829, 889
2015-10-27 17:18:34.717898, 786
2015-10-27 17:18:34.733722, 557
2015-10-27 17:18:34.733819, 415
2015-10-27 17:18:34.733888, 415
2015-10-27 17:18:34.749785, 463
2015-10-27 17:18:34.749881, 492
2015-10-27 17:18:34.749950, 510
2015-10-27 17:18:34.765665, 519
2015-10-27 17:18:34.765889, 522
2015-10-27 17:18:34.766122, 525
2015-10-27 17:18:34.781610, 528
2015-10-27 17:18:34.781721, 530
2015-10-27 17:18:34.781790, 533
2015-10-27 17:18:34.797603, 535
2015-10-27 17:18:34.797715, 536
2015-10-27 17:18:34.797785, 535
2015-10-27 17:18:34.813643, 534
2015-10-27 17:18:34.813839, 537
2015-10-27 17:18:34.813996, 540
2015-10-27 17:18:34.814071, 540
2015-10-27 17:18:34.829639, 544
2015-10-27 17:18:34.829731, 553
2015-10-27 17:18:34.829800, 556
2015-10-27 17:18:34.845691, 553
2015-10-27 17:18:34.845810, 546
2015-10-27 17:18:34.845881, 542
2015-10-27 17:18:34.861774, 538
2015-10-27 17:18:34.861867, 537
2015-10-27 17:18:34.861935, 540
2015-10-27 17:18:34.877641, 543
2015-10-27 17:18:34.877734, 546
2015-10-27 17:18:34.877803, 549
2015-10-27 17:18:34.893625, 552
2015-10-27 17:18:34.893719, 556
2015-10-27 17:18:34.893787, 561
2015-10-27 17:18:34.909908, 564
2015-10-27 17:18:34.910062, 567
2015-10-27 17:18:34.910195, 575
2015-10-27 17:18:34.925704, 579
2015-10-27 17:18:34.925830, 581
2015-10-27 17:18:34.925898, 574
2015-10-27 17:18:34.941602, 575
2015-10-27 17:18:34.941696, 583
2015-10-27 17:18:34.941792, 585
2015-10-27 17:18:34.957534, 578
2015-10-27 17:18:34.957609, 567
2015-10-27 17:18:34.957704, 564
2015-10-27 17:18:34.973527, 568
2015-10-27 17:18:34.973599, 569
2015-10-27 17:18:34.973646, 555
2015-10-27 17:18:34.989552, 540
2015-10-27 17:18:34.989650, 534
2015-10-27 17:18:34.989721, 531
2015-10-27 17:18:35.005559, 529
2015-10-27 17:18:35.005658, 521
2015-10-27 17:18:35.005727, 518
2015-10-27 17:18:35.021617, 521
2015-10-27 17:18:35.021730, 514
2015-10-27 17:18:35.021800, 498
2015-10-27 17:18:35.037605, 487
2015-10-27 17:18:35.037717, 493
2015-10-27 17:18:35.037788, 500
2015-10-27 17:18:35.053580, 496
2015-10-27 17:18:35.053693, 493
2015-10-27 17:18:35.053762, 494
2015-10-27 17:18:35.053827, 496
2015-10-27 17:18:35.069688, 496
2015-10-27 17:18:35.069781, 495
2015-10-27 17:18:35.069856, 485
2015-10-27 17:18:35.085598, 483
2015-10-27 17:18:35.085691, 491
2015-10-27 17:18:35.085742, 498
2015-10-27 17:18:35.101640, 491
2015-10-27 17:18:35.101734, 481
2015-10-27 17:18:35.101802, 484
2015-10-27 17:18:35.117621, 494
2015-10-27 17:18:35.117726, 504
2015-10-27 17:18:35.117794, 506
2015-10-27 17:18:35.133629, 493
2015-10-27 17:18:35.133723, 493
2015-10-27 17:18:35.133792, 508
2015-10-27 17:18:35.149608, 523
2015-10-27 17:18:35.149702, 532
2015-10-27 17:18:35.149770, 533
2015-10-27 17:18:35.165543, 537
2015-10-27 17:18:35.165612, 547
2015-10-27 17:18:35.165658, 546
2015-10-27 17:18:35.181665, 547
2015-10-27 17:18:35.182064, 558
2015-10-27 17:18:35.182192, 571
2015-10-27 17:18:35.197582, 596
2015-10-27 17:18:35.197675, 618
2015-10-27 17:18:35.197742, 618
2015-10-27 17:18:35.213563, 597
2015-10-27 17:18:35.213669, 584
2015-10-27 17:18:35.213739, 581
2015-10-27 17:18:35.229540, 572
2015-10-27 17:18:35.229650, 556
2015-10-27 17:18:35.229736, 543
2015-10-27 17:18:35.245536, 534
2015-10-27 17:18:35.245633, 528
2015-10-27 17:18:35.245702, 521
2015-10-27 17:18:35.261499, 521
2015-10-27 17:18:35.261612, 540
2015-10-27 17:18:35.261682, 563
2015-10-27 17:18:35.277529, 581
2015-10-27 17:18:35.277640, 590
2015-10-27 17:18:35.277711, 585
2015-10-27 17:18:35.293525, 566
2015-10-27 17:18:35.293635, 550
2015-10-27 17:18:35.293705, 542
2015-10-27 17:18:35.293770, 546
2015-10-27 17:18:35.309595, 550
2015-10-27 17:18:35.309812, 542
2015-10-27 17:18:35.309892, 528
2015-10-27 17:18:35.325593, 517
2015-10-27 17:18:35.325686, 505
2015-10-27 17:18:35.325754, 499
2015-10-27 17:18:35.341570, 511
2015-10-27 17:18:35.341855, 520
2015-10-27 17:18:35.342017, 500
2015-10-27 17:18:35.357522, 473
2015-10-27 17:18:35.357600, 461
2015-10-27 17:18:35.357656, 465
2015-10-27 17:18:35.373668, 472
2015-10-27 17:18:35.373762, 469
2015-10-27 17:18:35.373832, 465
2015-10-27 17:18:35.389513, 462
2015-10-27 17:18:35.389606, 463
2015-10-27 17:18:35.389732, 458
2015-10-27 17:18:35.405619, 459
2015-10-27 17:18:35.405715, 467
2015-10-27 17:18:35.405784, 479
2015-10-27 17:18:35.421523, 500
2015-10-27 17:18:35.421617, 526
2015-10-27 17:18:35.421687, 535
2015-10-27 17:18:35.437683, 526
2015-10-27 17:18:35.437785, 506
2015-10-27 17:18:35.437855, 487
2015-10-27 17:18:35.453518, 476
2015-10-27 17:18:35.453617, 474
2015-10-27 17:18:35.453685, 469
2015-10-27 17:18:35.469532, 461
2015-10-27 17:18:35.469630, 455
2015-10-27 17:18:35.469699, 457
2015-10-27 17:18:35.485588, 461
2015-10-27 17:18:35.485684, 459
2015-10-27 17:18:35.485752, 464
2015-10-27 17:18:35.501476, 469
2015-10-27 17:18:35.501588, 474
2015-10-27 17:18:35.501659, 470
2015-10-27 17:18:35.517472, 462
2015-10-27 17:18:35.517683, 462
2015-10-27 17:18:35.517897, 478
2015-10-27 17:18:35.533509, 504
2015-10-27 17:18:35.533621, 552
2015-10-27 17:18:35.533691, 644
2015-10-27 17:18:35.549428, 738
2015-10-27 17:18:35.549540, 824
2015-10-27 17:18:35.549610, 777
2015-10-27 17:18:35.549674, 562
2015-10-27 17:18:35.565501, 390
2015-10-27 17:18:35.565595, 370
2015-10-27 17:18:35.565665, 418
2015-10-27 17:18:35.581571, 449
2015-10-27 17:18:35.581665, 465
2015-10-27 17:18:35.581733, 465
2015-10-27 17:18:35.597491, 461
2015-10-27 17:18:35.597583, 459
2015-10-27 17:18:35.597652, 470
2015-10-27 17:18:35.613515, 483
2015-10-27 17:18:35.613606, 486
2015-10-27 17:18:35.613673, 486
2015-10-27 17:18:35.629493, 485
2015-10-27 17:18:35.629586, 486
2015-10-27 17:18:35.629681, 485
2015-10-27 17:18:35.645442, 480
2015-10-27 17:18:35.645511, 484
2015-10-27 17:18:35.645585, 498
2015-10-27 17:18:35.661550, 509
2015-10-27 17:18:35.661644, 507
2015-10-27 17:18:35.661714, 493
2015-10-27 17:18:35.677584, 484
2015-10-27 17:18:35.677677, 485
2015-10-27 17:18:35.677745, 493
2015-10-27 17:18:35.693451, 497
2015-10-27 17:18:35.693544, 498
2015-10-27 17:18:35.693613, 501
2015-10-27 17:18:35.709606, 516
2015-10-27 17:18:35.709747, 533
2015-10-27 17:18:35.709911, 544
2015-10-27 17:18:35.725627, 546
2015-10-27 17:18:35.725724, 544
2015-10-27 17:18:35.725793, 548
2015-10-27 17:18:35.741588, 550
2015-10-27 17:18:35.741686, 545
2015-10-27 17:18:35.741755, 542
2015-10-27 17:18:35.757506, 549
2015-10-27 17:18:35.757620, 559
2015-10-27 17:18:35.757690, 559
2015-10-27 17:18:35.773487, 553
2015-10-27 17:18:35.773601, 559
2015-10-27 17:18:35.773670, 567
2015-10-27 17:18:35.789565, 567
2015-10-27 17:18:35.789678, 556
2015-10-27 17:18:35.789748, 542
2015-10-27 17:18:35.789814, 537
2015-10-27 17:18:35.805451, 537
2015-10-27 17:18:35.805543, 537
2015-10-27 17:18:35.805611, 547
2015-10-27 17:18:35.821541, 553
2015-10-27 17:18:35.821633, 542
2015-10-27 17:18:35.821701, 530
2015-10-27 17:18:35.837697, 533
2015-10-27 17:18:35.837791, 536
2015-10-27 17:18:35.837858, 528
2015-10-27 17:18:35.853686, 508
2015-10-27 17:18:35.853806, 500
2015-10-27 17:18:35.853875, 502
2015-10-27 17:18:35.869590, 497
2015-10-27 17:18:35.869683, 496
2015-10-27 17:18:35.869752, 509
2015-10-27 17:18:35.885673, 509
2015-10-27 17:18:35.885790, 505
2015-10-27 17:18:35.885859, 516
2015-10-27 17:18:35.901651, 521
2015-10-27 17:18:35.901775, 512
2015-10-27 17:18:35.901874, 510
2015-10-27 17:18:35.917424, 513
2015-10-27 17:18:35.917607, 509
2015-10-27 17:18:35.917683, 496
2015-10-27 17:18:35.935161, 488
2015-10-27 17:18:35.935271, 491
2015-10-27 17:18:35.935355, 494
2015-10-27 17:18:35.949489, 504
2015-10-27 17:18:35.949594, 507
2015-10-27 17:18:35.949666, 501
2015-10-27 17:18:35.965315, 492
2015-10-27 17:18:35.965432, 493
2015-10-27 17:18:35.965508, 493
2015-10-27 17:18:35.981383, 495
2015-10-27 17:18:35.981442, 514
2015-10-27 17:18:35.981481, 532
2015-10-27 17:18:35.997309, 525
2015-10-27 17:18:35.997381, 513
2015-10-27 17:18:35.997424, 514
2015-10-27 17:18:36.013438, 526
2015-10-27 17:18:36.013549, 527
2015-10-27 17:18:36.013619, 519
2015-10-27 17:18:36.029324, 514
2015-10-27 17:18:36.029457, 520
2015-10-27 17:18:36.029680, 521
2015-10-27 17:18:36.029766, 509
2015-10-27 17:18:36.045328, 500
2015-10-27 17:18:36.045384, 499
2015-10-27 17:18:36.045423, 506
2015-10-27 17:18:36.061297, 518
2015-10-27 17:18:36.061355, 531
2015-10-27 17:18:36.061413, 534
2015-10-27 17:18:36.077430, 533
2015-10-27 17:18:36.077500, 536
2015-10-27 17:18:36.077550, 535
2015-10-27 17:18:36.093378, 525
2015-10-27 17:18:36.093511, 514
2015-10-27 17:18:36.093583, 506
2015-10-27 17:18:36.109268, 505
2015-10-27 17:18:36.109323, 500
2015-10-27 17:18:36.109362, 493
2015-10-27 17:18:36.125331, 484
2015-10-27 17:18:36.125386, 484
2015-10-27 17:18:36.125424, 489
2015-10-27 17:18:36.141298, 483
2015-10-27 17:18:36.141392, 479
2015-10-27 17:18:36.141469, 484
2015-10-27 17:18:36.157284, 497
2015-10-27 17:18:36.157341, 505
2015-10-27 17:18:36.157379, 506
2015-10-27 17:18:36.173371, 509
2015-10-27 17:18:36.173428, 506
2015-10-27 17:18:36.173466, 498
2015-10-27 17:18:36.189268, 496
2015-10-27 17:18:36.189364, 491
2015-10-27 17:18:36.189435, 480
2015-10-27 17:18:36.205289, 475
2015-10-27 17:18:36.205397, 480
2015-10-27 17:18:36.205486, 482
2015-10-27 17:18:36.221412, 486
2015-10-27 17:18:36.221508, 491
2015-10-27 17:18:36.221577, 490
2015-10-27 17:18:36.237570, 486
2015-10-27 17:18:36.237739, 480
2015-10-27 17:18:36.237810, 478
2015-10-27 17:18:36.253424, 477
2015-10-27 17:18:36.253536, 476
2015-10-27 17:18:36.253606, 473
2015-10-27 17:18:36.269242, 471
2015-10-27 17:18:36.269353, 468
2015-10-27 17:18:36.269456, 467
2015-10-27 17:18:36.269525, 465
2015-10-27 17:18:36.285328, 465
2015-10-27 17:18:36.285422, 464
2015-10-27 17:18:36.285492, 462
2015-10-27 17:18:36.301472, 463
2015-10-27 17:18:36.301565, 462
2015-10-27 17:18:36.301633, 462
2015-10-27 17:18:36.317292, 462
2015-10-27 17:18:36.317398, 461
2015-10-27 17:18:36.317513, 466
2015-10-27 17:18:36.333285, 484
2015-10-27 17:18:36.333348, 511
2015-10-27 17:18:36.333382, 554
2015-10-27 17:18:36.349259, 611
2015-10-27 17:18:36.349336, 663
2015-10-27 17:18:36.349414, 686
2015-10-27 17:18:36.365442, 597
2015-10-27 17:18:36.365534, 409
2015-10-27 17:18:36.365603, 311
2015-10-27 17:18:36.381422, 320
2015-10-27 17:18:36.381516, 366
2015-10-27 17:18:36.381585, 394
2015-10-27 17:18:36.397270, 418
2015-10-27 17:18:36.397432, 432
2015-10-27 17:18:36.397624, 440
2015-10-27 17:18:36.413328, 442
2015-10-27 17:18:36.413481, 447
2015-10-27 17:18:36.413599, 449
2015-10-27 17:18:36.429475, 448
2015-10-27 17:18:36.429572, 448
2015-10-27 17:18:36.429649, 449
2015-10-27 17:18:36.445255, 451
2015-10-27 17:18:36.445350, 452
2015-10-27 17:18:36.445420, 454
2015-10-27 17:18:36.461449, 455
2015-10-27 17:18:36.461606, 453
2015-10-27 17:18:36.461701, 452
2015-10-27 17:18:36.477475, 452
2015-10-27 17:18:36.477609, 454
2015-10-27 17:18:36.477679, 456
2015-10-27 17:18:36.493437, 455
2015-10-27 17:18:36.493603, 454
2015-10-27 17:18:36.493674, 454
2015-10-27 17:18:36.509336, 454
2015-10-27 17:18:36.509448, 456
2015-10-27 17:18:36.509517, 457
2015-10-27 17:18:36.525316, 455
2015-10-27 17:18:36.525428, 456
2015-10-27 17:18:36.525498, 458
2015-10-27 17:18:36.525564, 459
2015-10-27 17:18:36.541282, 461
2015-10-27 17:18:36.541374, 464
2015-10-27 17:18:36.541442, 466
2015-10-27 17:18:36.557383, 468
2015-10-27 17:18:36.557476, 472
2015-10-27 17:18:36.557545, 476
2015-10-27 17:18:36.573254, 476
2015-10-27 17:18:36.573350, 474
2015-10-27 17:18:36.573418, 470
2015-10-27 17:18:36.589345, 466
2015-10-27 17:18:36.589437, 461
2015-10-27 17:18:36.589505, 455
2015-10-27 17:18:36.605226, 446
2015-10-27 17:18:36.605319, 443
2015-10-27 17:18:36.605398, 439
2015-10-27 17:18:36.621290, 433
2015-10-27 17:18:36.621384, 425
2015-10-27 17:18:36.621452, 419
2015-10-27 17:18:36.637222, 414
2015-10-27 17:18:36.637299, 405
2015-10-27 17:18:36.637355, 397
2015-10-27 17:18:36.653143, 392
2015-10-27 17:18:36.653227, 387
2015-10-27 17:18:36.653263, 382
2015-10-27 17:18:36.669184, 379
2015-10-27 17:18:36.669401, 375
2015-10-27 17:18:36.669578, 369
2015-10-27 17:18:36.685175, 366
2015-10-27 17:18:36.685334, 364
2015-10-27 17:18:36.685459, 364
2015-10-27 17:18:36.701359, 360
2015-10-27 17:18:36.701456, 360
2015-10-27 17:18:36.701525, 361
2015-10-27 17:18:36.717250, 361
2015-10-27 17:18:36.717347, 361
2015-10-27 17:18:36.717416, 360
2015-10-27 17:18:36.733238, 359
2015-10-27 17:18:36.733352, 362
2015-10-27 17:18:36.733420, 366
2015-10-27 17:18:36.749327, 369
2015-10-27 17:18:36.749554, 371
2015-10-27 17:18:36.749679, 372
2015-10-27 17:18:36.765263, 373
2015-10-27 17:18:36.765374, 375
2015-10-27 17:18:36.765444, 377
2015-10-27 17:18:36.765509, 377
2015-10-27 17:18:36.781225, 376
2015-10-27 17:18:36.781320, 376
2015-10-27 17:18:36.781389, 375
2015-10-27 17:18:36.797099, 375
2015-10-27 17:18:36.797154, 376
2015-10-27 17:18:36.797193, 375
2015-10-27 17:18:36.813322, 376
2015-10-27 17:18:36.813414, 375
2015-10-27 17:18:36.813483, 372
2015-10-27 17:18:36.829432, 371
2015-10-27 17:18:36.829526, 369
2015-10-27 17:18:36.829594, 367
2015-10-27 17:18:36.845319, 367
2015-10-27 17:18:36.845412, 367
2015-10-27 17:18:36.845480, 366
2015-10-27 17:18:36.861342, 365
2015-10-27 17:18:36.861434, 363
2015-10-27 17:18:36.861502, 363
2015-10-27 17:18:36.877357, 364
2015-10-27 17:18:36.877510, 363
2015-10-27 17:18:36.877588, 362
2015-10-27 17:18:36.893349, 363
2015-10-27 17:18:36.893444, 363
2015-10-27 17:18:36.893513, 360
2015-10-27 17:18:36.909110, 358
2015-10-27 17:18:36.909205, 359
2015-10-27 17:18:36.909275, 359
2015-10-27 17:18:36.925107, 360
2015-10-27 17:18:36.925203, 360
2015-10-27 17:18:36.925273, 358
2015-10-27 17:18:36.941653, 357
2015-10-27 17:18:36.941821, 356
2015-10-27 17:18:36.941952, 357
2015-10-27 17:18:36.957040, 360
2015-10-27 17:18:36.957106, 360
2015-10-27 17:18:36.957153, 358
2015-10-27 17:18:36.972999, 358
2015-10-27 17:18:36.973145, 358
2015-10-27 17:18:36.973200, 358
2015-10-27 17:18:36.989009, 357
2015-10-27 17:18:36.989090, 356
2015-10-27 17:18:36.989138, 356
2015-10-27 17:18:37.005029, 355
2015-10-27 17:18:37.005158, 359
2015-10-27 17:18:37.005230, 368
2015-10-27 17:18:37.005296, 376
2015-10-27 17:18:37.021091, 380
2015-10-27 17:18:37.021206, 378
2015-10-27 17:18:37.021299, 375
2015-10-27 17:18:37.037056, 374
2015-10-27 17:18:37.037110, 376
2015-10-27 17:18:37.037148, 374
2015-10-27 17:18:37.053378, 371
2015-10-27 17:18:37.053472, 368
2015-10-27 17:18:37.053539, 367
2015-10-27 17:18:37.069323, 367
2015-10-27 17:18:37.069417, 367
2015-10-27 17:18:37.069485, 370
2015-10-27 17:18:37.085344, 370
2015-10-27 17:18:37.085437, 370
2015-10-27 17:18:37.085505, 370
2015-10-27 17:18:37.101178, 371
2015-10-27 17:18:37.101268, 371
2015-10-27 17:18:37.101335, 372
2015-10-27 17:18:37.117268, 378
2015-10-27 17:18:37.117415, 391
2015-10-27 17:18:37.117525, 409
2015-10-27 17:18:37.133109, 441
2015-10-27 17:18:37.133202, 492
2015-10-27 17:18:37.133270, 549
2015-10-27 17:18:37.149334, 593
2015-10-27 17:18:37.149455, 559
2015-10-27 17:18:37.149524, 424
2015-10-27 17:18:37.165287, 285
2015-10-27 17:18:37.165383, 255
2015-10-27 17:18:37.165452, 292
2015-10-27 17:18:37.181168, 326
2015-10-27 17:18:37.181279, 351
2015-10-27 17:18:37.181350, 368
2015-10-27 17:18:37.197046, 379
2015-10-27 17:18:37.197160, 386
2015-10-27 17:18:37.197247, 392
2015-10-27 17:18:37.213019, 399
2015-10-27 17:18:37.213152, 401
2015-10-27 17:18:37.213196, 402
2015-10-27 17:18:37.229059, 402
2015-10-27 17:18:37.229239, 405
2015-10-27 17:18:37.229367, 409
2015-10-27 17:18:37.244979, 413
2015-10-27 17:18:37.245050, 416
2015-10-27 17:18:37.245092, 417
2015-10-27 17:18:37.245131, 420
2015-10-27 17:18:37.261139, 420
2015-10-27 17:18:37.261234, 421
2015-10-27 17:18:37.261302, 426
2015-10-27 17:18:37.277266, 426
2015-10-27 17:18:37.277409, 432
2015-10-27 17:18:37.277505, 433
2015-10-27 17:18:37.293362, 437
2015-10-27 17:18:37.293454, 440
2015-10-27 17:18:37.293523, 442
2015-10-27 17:18:37.309198, 445
2015-10-27 17:18:37.309293, 448
2015-10-27 17:18:37.309361, 454
2015-10-27 17:18:37.325092, 460
2015-10-27 17:18:37.325186, 464
2015-10-27 17:18:37.325255, 469
2015-10-27 17:18:37.341179, 474
2015-10-27 17:18:37.341340, 479
2015-10-27 17:18:37.341467, 484
2015-10-27 17:18:37.357316, 487
2015-10-27 17:18:37.357435, 488
2015-10-27 17:18:37.357504, 487
2015-10-27 17:18:37.373048, 489
2015-10-27 17:18:37.373144, 488
2015-10-27 17:18:37.373213, 486
2015-10-27 17:18:37.389064, 485
2015-10-27 17:18:37.389213, 481
2015-10-27 17:18:37.389340, 479
2015-10-27 17:18:37.405128, 478
2015-10-27 17:18:37.405224, 475
2015-10-27 17:18:37.405293, 472
2015-10-27 17:18:37.421204, 470
2015-10-27 17:18:37.421337, 466
2015-10-27 17:18:37.421406, 462
2015-10-27 17:18:37.437125, 462
2015-10-27 17:18:37.437223, 460
2015-10-27 17:18:37.437292, 458
2015-10-27 17:18:37.453221, 456
2015-10-27 17:18:37.453384, 451
2015-10-27 17:18:37.453453, 451
2015-10-27 17:18:37.469195, 452
2015-10-27 17:18:37.469333, 451
2015-10-27 17:18:37.469404, 452
2015-10-27 17:18:37.485164, 452
2015-10-27 17:18:37.485282, 450
2015-10-27 17:18:37.485353, 450
2015-10-27 17:18:37.485418, 453
2015-10-27 17:18:37.501312, 453
2015-10-27 17:18:37.501405, 456
2015-10-27 17:18:37.501474, 457
2015-10-27 17:18:37.517150, 460
2015-10-27 17:18:37.517254, 463
2015-10-27 17:18:37.517321, 468
2015-10-27 17:18:37.533333, 471
2015-10-27 17:18:37.533427, 474
2015-10-27 17:18:37.533496, 476
2015-10-27 17:18:37.549221, 481
2015-10-27 17:18:37.549314, 484
2015-10-27 17:18:37.549382, 488
2015-10-27 17:18:37.565207, 491
2015-10-27 17:18:37.565300, 493
2015-10-27 17:18:37.565369, 494
2015-10-27 17:18:37.580995, 495
2015-10-27 17:18:37.581088, 497
2015-10-27 17:18:37.581157, 498
2015-10-27 17:18:37.597292, 497
2015-10-27 17:18:37.597445, 500
2015-10-27 17:18:37.597527, 503
2015-10-27 17:18:37.613294, 504
2015-10-27 17:18:37.613439, 505
2015-10-27 17:18:37.613524, 505
2015-10-27 17:18:37.629160, 507
2015-10-27 17:18:37.629254, 507
2015-10-27 17:18:37.629322, 505
2015-10-27 17:18:37.644968, 503
2015-10-27 17:18:37.645062, 505
2015-10-27 17:18:37.645130, 508
2015-10-27 17:18:37.661185, 508
2015-10-27 17:18:37.661283, 509
2015-10-27 17:18:37.661351, 509
2015-10-27 17:18:37.677126, 510
2015-10-27 17:18:37.677264, 510
2015-10-27 17:18:37.677335, 511
2015-10-27 17:18:37.692941, 513
2015-10-27 17:18:37.693060, 515
2015-10-27 17:18:37.693143, 515
2015-10-27 17:18:37.708891, 517
2015-10-27 17:18:37.709003, 520
2015-10-27 17:18:37.709073, 520
2015-10-27 17:18:37.724879, 521
2015-10-27 17:18:37.724990, 522
2015-10-27 17:18:37.725060, 522
2015-10-27 17:18:37.740896, 523
2015-10-27 17:18:37.741072, 525
2015-10-27 17:18:37.741204, 528
2015-10-27 17:18:37.741464, 527
2015-10-27 17:18:37.756918, 525
2015-10-27 17:18:37.757024, 522
2015-10-27 17:18:37.757093, 524
2015-10-27 17:18:37.773085, 528
2015-10-27 17:18:37.773178, 529
2015-10-27 17:18:37.773246, 532
2015-10-27 17:18:37.788928, 539
2015-10-27 17:18:37.789021, 549
2015-10-27 17:18:37.789089, 553
2015-10-27 17:18:37.804902, 550
2015-10-27 17:18:37.804997, 545
2015-10-27 17:18:37.805066, 545
2015-10-27 17:18:37.820924, 546
2015-10-27 17:18:37.821018, 546
2015-10-27 17:18:37.821087, 544
2015-10-27 17:18:37.837070, 542
2015-10-27 17:18:37.837162, 542
2015-10-27 17:18:37.837231, 542
2015-10-27 17:18:37.852904, 542
2015-10-27 17:18:37.853000, 543
2015-10-27 17:18:37.853069, 545
2015-10-27 17:18:37.869137, 548
2015-10-27 17:18:37.869262, 547
2015-10-27 17:18:37.869331, 547
2015-10-27 17:18:37.885211, 548
2015-10-27 17:18:37.885378, 548
2015-10-27 17:18:37.885505, 554
2015-10-27 17:18:37.900976, 564
2015-10-27 17:18:37.901072, 585
2015-10-27 17:18:37.901142, 620
2015-10-27 17:18:37.916933, 668
2015-10-27 17:18:37.917063, 721
2015-10-27 17:18:37.917136, 761
2015-10-27 17:18:37.933085, 710
2015-10-27 17:18:37.933211, 566
2015-10-27 17:18:37.933280, 452
2015-10-27 17:18:37.948989, 437
2015-10-27 17:18:37.949158, 476
2015-10-27 17:18:37.949231, 506
2015-10-27 17:18:37.965029, 528
2015-10-27 17:18:37.965142, 543
2015-10-27 17:18:37.965212, 554
2015-10-27 17:18:37.980833, 559
2015-10-27 17:18:37.980947, 562
2015-10-27 17:18:37.981017, 566
2015-10-27 17:18:37.981084, 567
2015-10-27 17:18:37.997150, 568
2015-10-27 17:18:37.997256, 569
2015-10-27 17:18:37.997324, 570
2015-10-27 17:18:38.013109, 572
2015-10-27 17:18:38.013201, 573
2015-10-27 17:18:38.013269, 574
2015-10-27 17:18:38.029040, 576
2015-10-27 17:18:38.029134, 578
2015-10-27 17:18:38.029202, 579
2015-10-27 17:18:38.045091, 579
2015-10-27 17:18:38.045185, 580
2015-10-27 17:18:38.045253, 581
2015-10-27 17:18:38.060880, 584
2015-10-27 17:18:38.060946, 586
2015-10-27 17:18:38.060993, 588
2015-10-27 17:18:38.077142, 591
2015-10-27 17:18:38.077237, 595
2015-10-27 17:18:38.077321, 598
2015-10-27 17:18:38.092993, 599
2015-10-27 17:18:38.093087, 600
2015-10-27 17:18:38.093155, 601
2015-10-27 17:18:38.108899, 606
2015-10-27 17:18:38.108993, 611
2015-10-27 17:18:38.109063, 615
2015-10-27 17:18:38.124947, 619
2015-10-27 17:18:38.125043, 621
2015-10-27 17:18:38.125111, 623
2015-10-27 17:18:38.140913, 623
2015-10-27 17:18:38.141011, 622
2015-10-27 17:18:38.141080, 621
2015-10-27 17:18:38.156791, 618
2015-10-27 17:18:38.156893, 614
2015-10-27 17:18:38.156974, 611
2015-10-27 17:18:38.173028, 608
2015-10-27 17:18:38.173161, 605
2015-10-27 17:18:38.173231, 601
2015-10-27 17:18:38.188947, 597
2015-10-27 17:18:38.189151, 594
2015-10-27 17:18:38.189267, 589
2015-10-27 17:18:38.204788, 584
2015-10-27 17:18:38.204977, 580
2015-10-27 17:18:38.205064, 577
2015-10-27 17:18:38.221021, 573
2015-10-27 17:18:38.221140, 569
2015-10-27 17:18:38.221210, 566
2015-10-27 17:18:38.221277, 565
2015-10-27 17:18:38.236978, 564
2015-10-27 17:18:38.237071, 563
2015-10-27 17:18:38.237140, 562
2015-10-27 17:18:38.253068, 561
2015-10-27 17:18:38.253162, 559
2015-10-27 17:18:38.253230, 558
2015-10-27 17:18:38.269079, 558
2015-10-27 17:18:38.269174, 559
2015-10-27 17:18:38.269243, 559
2015-10-27 17:18:38.284910, 560
2015-10-27 17:18:38.285003, 563
2015-10-27 17:18:38.285071, 565
2015-10-27 17:18:38.300990, 568
2015-10-27 17:18:38.301083, 569
2015-10-27 17:18:38.301151, 572
2015-10-27 17:18:38.317053, 575
2015-10-27 17:18:38.317146, 577
2015-10-27 17:18:38.317215, 579
2015-10-27 17:18:38.332934, 581
2015-10-27 17:18:38.333034, 583
2015-10-27 17:18:38.333103, 586
2015-10-27 17:18:38.348837, 588
2015-10-27 17:18:38.348931, 590
2015-10-27 17:18:38.349000, 591
2015-10-27 17:18:38.364801, 592
2015-10-27 17:18:38.364893, 593
2015-10-27 17:18:38.364961, 592
2015-10-27 17:18:38.380964, 592
2015-10-27 17:18:38.381060, 590
2015-10-27 17:18:38.381129, 589
2015-10-27 17:18:38.396907, 588
2015-10-27 17:18:38.397015, 587
2015-10-27 17:18:38.397142, 586
2015-10-27 17:18:38.412849, 585
2015-10-27 17:18:38.412947, 585
2015-10-27 17:18:38.413017, 584
2015-10-27 17:18:38.428707, 582
2015-10-27 17:18:38.428891, 582
2015-10-27 17:18:38.429027, 582
2015-10-27 17:18:38.444634, 584
2015-10-27 17:18:38.444751, 584
2015-10-27 17:18:38.444859, 583
2015-10-27 17:18:38.460621, 581
2015-10-27 17:18:38.460690, 580
2015-10-27 17:18:38.460731, 581
2015-10-27 17:18:38.460780, 583
2015-10-27 17:18:38.476840, 584
2015-10-27 17:18:38.477020, 582
2015-10-27 17:18:38.477107, 581
2015-10-27 17:18:38.492660, 581
2015-10-27 17:18:38.492729, 581
2015-10-27 17:18:38.492779, 582
2015-10-27 17:18:38.508674, 580
2015-10-27 17:18:38.508739, 581
2015-10-27 17:18:38.508787, 582
2015-10-27 17:18:38.524628, 581
2015-10-27 17:18:38.524684, 581
2015-10-27 17:18:38.524723, 581
2015-10-27 17:18:38.540753, 581
2015-10-27 17:18:38.540844, 581
2015-10-27 17:18:38.540912, 582
2015-10-27 17:18:38.556664, 582
2015-10-27 17:18:38.556720, 583
2015-10-27 17:18:38.556758, 583
2015-10-27 17:18:38.572763, 582
2015-10-27 17:18:38.572820, 583
2015-10-27 17:18:38.572859, 582
2015-10-27 17:18:38.588657, 582
2015-10-27 17:18:38.588767, 582
2015-10-27 17:18:38.588826, 581
2015-10-27 17:18:38.604835, 582
2015-10-27 17:18:38.604952, 583
2015-10-27 17:18:38.605119, 583
2015-10-27 17:18:38.620836, 580
2015-10-27 17:18:38.620986, 577
2015-10-27 17:18:38.621119, 576
2015-10-27 17:18:38.636848, 578
2015-10-27 17:18:38.636946, 583
2015-10-27 17:18:38.637015, 591
2015-10-27 17:18:38.652805, 598
2015-10-27 17:18:38.652901, 601
2015-10-27 17:18:38.652970, 599
2015-10-27 17:18:38.668791, 595
2015-10-27 17:18:38.668903, 593
2015-10-27 17:18:38.668972, 592
2015-10-27 17:18:38.684733, 589
2015-10-27 17:18:38.684811, 586
2015-10-27 17:18:38.684886, 584
2015-10-27 17:18:38.700597, 582
2015-10-27 17:18:38.700709, 580
2015-10-27 17:18:38.700780, 578
2015-10-27 17:18:38.716712, 579
2015-10-27 17:18:38.716825, 578
2015-10-27 17:18:38.716894, 577
2015-10-27 17:18:38.716960, 577
2015-10-27 17:18:38.732804, 577
2015-10-27 17:18:38.732898, 576
2015-10-27 17:18:38.732967, 574
2015-10-27 17:18:38.748746, 570
2015-10-27 17:18:38.748839, 574
2015-10-27 17:18:38.748908, 591
2015-10-27 17:18:38.764815, 630
2015-10-27 17:18:38.764908, 707
2015-10-27 17:18:38.764975, 794
2015-10-27 17:18:38.780830, 860
2015-10-27 17:18:38.780924, 871
2015-10-27 17:18:38.780992, 707
2015-10-27 17:18:38.796780, 531
2015-10-27 17:18:38.796874, 463
2015-10-27 17:18:38.796942, 482
2015-10-27 17:18:38.812730, 517
2015-10-27 17:18:38.812823, 540
2015-10-27 17:18:38.812893, 554
2015-10-27 17:18:38.828702, 557
2015-10-27 17:18:38.828796, 559
2015-10-27 17:18:38.828865, 562
2015-10-27 17:18:38.844686, 563
2015-10-27 17:18:38.844784, 563
2015-10-27 17:18:38.844864, 565
2015-10-27 17:18:38.860565, 565
2015-10-27 17:18:38.860659, 566
2015-10-27 17:18:38.860727, 568
2015-10-27 17:18:38.876737, 568
2015-10-27 17:18:38.877182, 569
2015-10-27 17:18:38.877349, 571
2015-10-27 17:18:38.892637, 571
2015-10-27 17:18:38.892827, 572
2015-10-27 17:18:38.893059, 575
2015-10-27 17:18:38.908644, 575
2015-10-27 17:18:38.908742, 576
2015-10-27 17:18:38.909149, 576
2015-10-27 17:18:38.924535, 576
2015-10-27 17:18:38.924649, 577
2015-10-27 17:18:38.924719, 578
2015-10-27 17:18:38.940647, 579
2015-10-27 17:18:38.940754, 580
2015-10-27 17:18:38.940824, 583
2015-10-27 17:18:38.956517, 585
2015-10-27 17:18:38.956631, 588
2015-10-27 17:18:38.956702, 590
2015-10-27 17:18:38.956768, 592
2015-10-27 17:18:38.972577, 596
2015-10-27 17:18:38.972669, 599
2015-10-27 17:18:38.972738, 600
2015-10-27 17:18:38.988598, 602
2015-10-27 17:18:38.988692, 603
2015-10-27 17:18:38.988760, 603
2015-10-27 17:18:39.004709, 602
2015-10-27 17:18:39.004847, 600
2015-10-27 17:18:39.004975, 596
2015-10-27 17:18:39.020578, 591
2015-10-27 17:18:39.020673, 587
2015-10-27 17:18:39.020741, 583
2015-10-27 17:18:39.036701, 579
2015-10-27 17:18:39.036795, 577
2015-10-27 17:18:39.036863, 574
2015-10-27 17:18:39.052661, 570
2015-10-27 17:18:39.052754, 565
2015-10-27 17:18:39.052822, 561
2015-10-27 17:18:39.068743, 556
2015-10-27 17:18:39.068837, 552
2015-10-27 17:18:39.068906, 548
2015-10-27 17:18:39.084602, 545
2015-10-27 17:18:39.084689, 542
2015-10-27 17:18:39.084753, 540
2015-10-27 17:18:39.100684, 538
2015-10-27 17:18:39.100778, 535
2015-10-27 17:18:39.100845, 534
2015-10-27 17:18:39.116585, 533
2015-10-27 17:18:39.116683, 532
2015-10-27 17:18:39.116752, 531
2015-10-27 17:18:39.132603, 531
2015-10-27 17:18:39.132782, 531
2015-10-27 17:18:39.132877, 532
2015-10-27 17:18:39.148559, 533
2015-10-27 17:18:39.148657, 532
2015-10-27 17:18:39.148713, 531
2015-10-27 17:18:39.164635, 531
2015-10-27 17:18:39.164798, 530
2015-10-27 17:18:39.165056, 530
2015-10-27 17:18:39.180703, 529
2015-10-27 17:18:39.180815, 529
2015-10-27 17:18:39.180885, 529
2015-10-27 17:18:39.196645, 531
2015-10-27 17:18:39.196757, 533
2015-10-27 17:18:39.196826, 535
2015-10-27 17:18:39.196891, 536
2015-10-27 17:18:39.212617, 537
2015-10-27 17:18:39.212748, 537
2015-10-27 17:18:39.212864, 537
2015-10-27 17:18:39.228705, 537
2015-10-27 17:18:39.228798, 538
2015-10-27 17:18:39.228866, 537
2015-10-27 17:18:39.244767, 537
2015-10-27 17:18:39.244861, 536
2015-10-27 17:18:39.244928, 536
2015-10-27 17:18:39.260704, 537
2015-10-27 17:18:39.260798, 537
2015-10-27 17:18:39.260867, 535
2015-10-27 17:18:39.276563, 535
2015-10-27 17:18:39.276656, 534
2015-10-27 17:18:39.276724, 533
2015-10-27 17:18:39.292576, 531
2015-10-27 17:18:39.292679, 531
2015-10-27 17:18:39.292748, 531
2015-10-27 17:18:39.308766, 530
2015-10-27 17:18:39.308860, 530
2015-10-27 17:18:39.309035, 529
2015-10-27 17:18:39.324685, 528
2015-10-27 17:18:39.324780, 529
2015-10-27 17:18:39.324849, 528
2015-10-27 17:18:39.340543, 528
2015-10-27 17:18:39.340651, 527
2015-10-27 17:18:39.340721, 525
2015-10-27 17:18:39.356557, 524
2015-10-27 17:18:39.356655, 525
2015-10-27 17:18:39.356724, 525
2015-10-27 17:18:39.372538, 524
2015-10-27 17:18:39.372635, 525
2015-10-27 17:18:39.372705, 526
2015-10-27 17:18:39.388676, 527
2015-10-27 17:18:39.388773, 526
2015-10-27 17:18:39.388843, 526
2015-10-27 17:18:39.404685, 525
2015-10-27 17:18:39.404849, 524
2015-10-27 17:18:39.404919, 524
2015-10-27 17:18:39.420477, 525
2015-10-27 17:18:39.420588, 526
2015-10-27 17:18:39.420657, 524
2015-10-27 17:18:39.436670, 523
2015-10-27 17:18:39.436781, 522
2015-10-27 17:18:39.436850, 522
2015-10-27 17:18:39.436916, 521
2015-10-27 17:18:39.452830, 524
2015-10-27 17:18:39.452924, 525
2015-10-27 17:18:39.452993, 523
2015-10-27 17:18:39.468694, 523
2015-10-27 17:18:39.468787, 524
2015-10-27 17:18:39.468854, 521
2015-10-27 17:18:39.484662, 519
2015-10-27 17:18:39.484756, 520
2015-10-27 17:18:39.484823, 521
2015-10-27 17:18:39.500668, 524
2015-10-27 17:18:39.500760, 522
2015-10-27 17:18:39.500828, 516
2015-10-27 17:18:39.516651, 513
2015-10-27 17:18:39.516744, 515
2015-10-27 17:18:39.516812, 516
2015-10-27 17:18:39.532659, 521
2015-10-27 17:18:39.532751, 528
2015-10-27 17:18:39.532820, 533
2015-10-27 17:18:39.548526, 536
2015-10-27 17:18:39.548671, 533
2015-10-27 17:18:39.548789, 530
2015-10-27 17:18:39.564650, 530
2015-10-27 17:18:39.564747, 528
2015-10-27 17:18:39.564816, 524
2015-10-27 17:18:39.580470, 521
2015-10-27 17:18:39.580569, 516
2015-10-27 17:18:39.580644, 514
2015-10-27 17:18:39.596405, 513
2015-10-27 17:18:39.596473, 512
2015-10-27 17:18:39.596522, 511
2015-10-27 17:18:39.612453, 510
2015-10-27 17:18:39.612748, 511
2015-10-27 17:18:39.612825, 508
2015-10-27 17:18:39.628429, 505
2015-10-27 17:18:39.628529, 505
2015-10-27 17:18:39.628605, 504
2015-10-27 17:18:39.644615, 502
2015-10-27 17:18:39.644728, 505
2015-10-27 17:18:39.644805, 525
2015-10-27 17:18:39.660475, 571
2015-10-27 17:18:39.660576, 660
2015-10-27 17:18:39.660640, 755
2015-10-27 17:18:39.676399, 834
2015-10-27 17:18:39.676527, 832
2015-10-27 17:18:39.676589, 637
2015-10-27 17:18:39.676636, 437
2015-10-27 17:18:39.692412, 369
2015-10-27 17:18:39.692470, 398
2015-10-27 17:18:39.692519, 440
2015-10-27 17:18:39.708570, 466
2015-10-27 17:18:39.708667, 478
2015-10-27 17:18:39.708737, 481
2015-10-27 17:18:39.724452, 484
2015-10-27 17:18:39.724653, 490
2015-10-27 17:18:39.724829, 491
2015-10-27 17:18:39.740556, 491
2015-10-27 17:18:39.740650, 494
2015-10-27 17:18:39.740718, 499
2015-10-27 17:18:39.756701, 497
2015-10-27 17:18:39.756925, 499
2015-10-27 17:18:39.757001, 500
2015-10-27 17:18:39.772784, 501
2015-10-27 17:18:39.772970, 502
2015-10-27 17:18:39.773059, 503
2015-10-27 17:18:39.788439, 505
2015-10-27 17:18:39.788534, 505
2015-10-27 17:18:39.788670, 505
2015-10-27 17:18:39.804643, 507
2015-10-27 17:18:39.804809, 508
2015-10-27 17:18:39.804883, 510
2015-10-27 17:18:39.820402, 512
2015-10-27 17:18:39.820495, 514
2015-10-27 17:18:39.820563, 516
2015-10-27 17:18:39.836386, 517
2015-10-27 17:18:39.836443, 519
2015-10-27 17:18:39.836481, 523
2015-10-27 17:18:39.852339, 527
2015-10-27 17:18:39.852397, 530
2015-10-27 17:18:39.852437, 533
2015-10-27 17:18:39.868369, 535
2015-10-27 17:18:39.868427, 539
2015-10-27 17:18:39.868466, 543
2015-10-27 17:18:39.884334, 545
2015-10-27 17:18:39.884437, 547
2015-10-27 17:18:39.884511, 547
2015-10-27 17:18:39.900526, 545
2015-10-27 17:18:39.900637, 543
2015-10-27 17:18:39.900706, 539
2015-10-27 17:18:39.916558, 535
2015-10-27 17:18:39.916721, 530
2015-10-27 17:18:39.916792, 525
2015-10-27 17:18:39.932332, 520
2015-10-27 17:18:39.932414, 515
2015-10-27 17:18:39.932475, 512
2015-10-27 17:18:39.932525, 510
2015-10-27 17:18:39.948331, 506
2015-10-27 17:18:39.948398, 500
2015-10-27 17:18:39.948447, 496
2015-10-27 17:18:39.964492, 493
2015-10-27 17:18:39.964585, 489
2015-10-27 17:18:39.964653, 486
2015-10-27 17:18:39.980388, 483
2015-10-27 17:18:39.980504, 481
2015-10-27 17:18:39.980605, 479
2015-10-27 17:18:39.996314, 478
2015-10-27 17:18:39.996379, 477
2015-10-27 17:18:39.996426, 477
2015-10-27 17:18:40.012415, 476
2015-10-27 17:18:40.012519, 475
2015-10-27 17:18:40.012614, 474
2015-10-27 17:18:40.028282, 475
2015-10-27 17:18:40.028338, 475
2015-10-27 17:18:40.028376, 475
2015-10-27 17:18:40.044301, 476
2015-10-27 17:18:40.044386, 477
2015-10-27 17:18:40.044450, 477
2015-10-27 17:18:40.060244, 479
2015-10-27 17:18:40.060302, 480
2015-10-27 17:18:40.060343, 480
2015-10-27 17:18:40.076688, 482
2015-10-27 17:18:40.076786, 483
2015-10-27 17:18:40.076855, 483
2015-10-27 17:18:40.092525, 485
2015-10-27 17:18:40.092625, 486
2015-10-27 17:18:40.092694, 488
2015-10-27 17:18:40.108460, 488
2015-10-27 17:18:40.108557, 489
2015-10-27 17:18:40.108625, 491
2015-10-27 17:18:40.124231, 493
2015-10-27 17:18:40.124289, 493
2015-10-27 17:18:40.124327, 495
2015-10-27 17:18:40.140291, 495
2015-10-27 17:18:40.140403, 496
2015-10-27 17:18:40.140472, 496
2015-10-27 17:18:40.156434, 496
2015-10-27 17:18:40.156545, 495
2015-10-27 17:18:40.156615, 493
2015-10-27 17:18:40.172255, 493
2015-10-27 17:18:40.172371, 490
2015-10-27 17:18:40.172441, 490
2015-10-27 17:18:40.172507, 490
2015-10-27 17:18:40.188365, 489
2015-10-27 17:18:40.188494, 490
2015-10-27 17:18:40.188600, 489
2015-10-27 17:18:40.204228, 489
2015-10-27 17:18:40.204339, 488
2015-10-27 17:18:40.204421, 488
2015-10-27 17:18:40.220258, 487
2015-10-27 17:18:40.220346, 487
2015-10-27 17:18:40.220412, 487
2015-10-27 17:18:40.236226, 485
2015-10-27 17:18:40.236315, 484
2015-10-27 17:18:40.236388, 484
2015-10-27 17:18:40.252305, 485
2015-10-27 17:18:40.252362, 484
2015-10-27 17:18:40.252401, 482
2015-10-27 17:18:40.268870, 482
2015-10-27 17:18:40.268960, 480
2015-10-27 17:18:40.269030, 481
2015-10-27 17:18:40.284229, 480
2015-10-27 17:18:40.284286, 479
2015-10-27 17:18:40.284326, 480
2015-10-27 17:18:40.300326, 480
2015-10-27 17:18:40.300447, 480
2015-10-27 17:18:40.300517, 480
2015-10-27 17:18:40.316293, 479
2015-10-27 17:18:40.316361, 478
2015-10-27 17:18:40.316407, 477
2015-10-27 17:18:40.332186, 477
2015-10-27 17:18:40.332257, 477
2015-10-27 17:18:40.332305, 475
2015-10-27 17:18:40.348230, 475
2015-10-27 17:18:40.348295, 475
2015-10-27 17:18:40.348339, 474
2015-10-27 17:18:40.364316, 475
2015-10-27 17:18:40.364392, 473
2015-10-27 17:18:40.364439, 471
2015-10-27 17:18:40.380362, 470
2015-10-27 17:18:40.380505, 469
2015-10-27 17:18:40.380576, 470
2015-10-27 17:18:40.396163, 467
2015-10-27 17:18:40.396315, 463
2015-10-27 17:18:40.396431, 461
2015-10-27 17:18:40.412379, 462
2015-10-27 17:18:40.412492, 465
2015-10-27 17:18:40.412580, 472
2015-10-27 17:18:40.412659, 480
2015-10-27 17:18:40.428448, 486
2015-10-27 17:18:40.428541, 483
2015-10-27 17:18:40.428610, 476
2015-10-27 17:18:40.444419, 473
2015-10-27 17:18:40.444512, 472
2015-10-27 17:18:40.444580, 468
2015-10-27 17:18:40.460450, 463
2015-10-27 17:18:40.460542, 459
2015-10-27 17:18:40.460610, 455
2015-10-27 17:18:40.476391, 453
2015-10-27 17:18:40.476483, 451
2015-10-27 17:18:40.476551, 449
2015-10-27 17:18:40.492383, 448
2015-10-27 17:18:40.492475, 447
2015-10-27 17:18:40.492543, 444
2015-10-27 17:18:40.508303, 443
2015-10-27 17:18:40.508396, 442
2015-10-27 17:18:40.508464, 441
2015-10-27 17:18:40.524184, 439
2015-10-27 17:18:40.524278, 440
2015-10-27 17:18:40.524347, 454
2015-10-27 17:18:40.540220, 488
2015-10-27 17:18:40.540380, 561
2015-10-27 17:18:40.540511, 657
2015-10-27 17:18:40.556174, 737
2015-10-27 17:18:40.556270, 781
2015-10-27 17:18:40.556339, 631
2015-10-27 17:18:40.572291, 407
2015-10-27 17:18:40.572388, 293
2015-10-27 17:18:40.572455, 306
2015-10-27 17:18:40.588398, 353
2015-10-27 17:18:40.588497, 383
2015-10-27 17:18:40.588564, 400
2015-10-27 17:18:40.604162, 403
2015-10-27 17:18:40.604260, 406
2015-10-27 17:18:40.604328, 413
2015-10-27 17:18:40.620172, 414
2015-10-27 17:18:40.620283, 414
2015-10-27 17:18:40.620352, 415
2015-10-27 17:18:40.636269, 415
2015-10-27 17:18:40.636420, 417
2015-10-27 17:18:40.636490, 417
2015-10-27 17:18:40.652241, 418
2015-10-27 17:18:40.652352, 418
2015-10-27 17:18:40.652421, 417
2015-10-27 17:18:40.652487, 418
2015-10-27 17:18:40.668425, 419
2015-10-27 17:18:40.668519, 420
2015-10-27 17:18:40.668587, 420
2015-10-27 17:18:40.684166, 419
2015-10-27 17:18:40.684290, 420
2015-10-27 17:18:40.684396, 420
2015-10-27 17:18:40.700112, 420
2015-10-27 17:18:40.700225, 422
2015-10-27 17:18:40.700319, 424
2015-10-27 17:18:40.716110, 425
2015-10-27 17:18:40.716227, 426
2015-10-27 17:18:40.716283, 429
2015-10-27 17:18:40.732119, 432
2015-10-27 17:18:40.732305, 435
2015-10-27 17:18:40.732406, 436
2015-10-27 17:18:40.748070, 439
2015-10-27 17:18:40.748128, 442
2015-10-27 17:18:40.748286, 446
2015-10-27 17:18:40.764086, 447
2015-10-27 17:18:40.764144, 447
2015-10-27 17:18:40.764183, 446
2015-10-27 17:18:40.780267, 445
2015-10-27 17:18:40.780362, 442
2015-10-27 17:18:40.780430, 439
2015-10-27 17:18:40.796245, 435
2015-10-27 17:18:40.796339, 428
2015-10-27 17:18:40.796407, 421
2015-10-27 17:18:40.812360, 416
2015-10-27 17:18:40.812457, 411
2015-10-27 17:18:40.812526, 407
2015-10-27 17:18:40.828268, 404
2015-10-27 17:18:40.828365, 400
2015-10-27 17:18:40.828433, 393
2015-10-27 17:18:40.844277, 389
2015-10-27 17:18:40.844374, 384
2015-10-27 17:18:40.844460, 381
2015-10-27 17:18:40.860075, 376
2015-10-27 17:18:40.860186, 373
2015-10-27 17:18:40.860257, 370
2015-10-27 17:18:40.876064, 366
2015-10-27 17:18:40.876177, 364
2015-10-27 17:18:40.876247, 361
2015-10-27 17:18:40.892052, 360
2015-10-27 17:18:40.892179, 359
2015-10-27 17:18:40.892236, 358
2015-10-27 17:18:40.908154, 357
2015-10-27 17:18:40.908267, 357
2015-10-27 17:18:40.908337, 357
2015-10-27 17:18:40.908402, 360
2015-10-27 17:18:40.924275, 361
2015-10-27 17:18:40.924370, 363
2015-10-27 17:18:40.924439, 363
2015-10-27 17:18:40.940168, 363
2015-10-27 17:18:40.940280, 366
2015-10-27 17:18:40.940350, 366
2015-10-27 17:18:40.956074, 365
2015-10-27 17:18:40.956155, 367
2015-10-27 17:18:40.956204, 370
2015-10-27 17:18:40.972251, 371
2015-10-27 17:18:40.972344, 372
2015-10-27 17:18:40.972411, 375
2015-10-27 17:18:40.988127, 377
2015-10-27 17:18:40.988222, 377
2015-10-27 17:18:40.988290, 379
2015-10-27 17:18:41.004245, 379
2015-10-27 17:18:41.004338, 380
2015-10-27 17:18:41.004406, 380
2015-10-27 17:18:41.020272, 379
2015-10-27 17:18:41.020367, 378
2015-10-27 17:18:41.020434, 379
2015-10-27 17:18:41.036326, 379
2015-10-27 17:18:41.036421, 378
2015-10-27 17:18:41.036490, 378
2015-10-27 17:18:41.052095, 378
2015-10-27 17:18:41.052283, 377
2015-10-27 17:18:41.052455, 377
2015-10-27 17:18:41.068068, 377
2015-10-27 17:18:41.068164, 376
2015-10-27 17:18:41.068234, 376
2015-10-27 17:18:41.084300, 375
2015-10-27 17:18:41.084396, 376
2015-10-27 17:18:41.084465, 377
2015-10-27 17:18:41.100132, 376
2015-10-27 17:18:41.100225, 377
2015-10-27 17:18:41.100282, 379
2015-10-27 17:18:41.116213, 379
2015-10-27 17:18:41.116324, 378
2015-10-27 17:18:41.116395, 379
2015-10-27 17:18:41.132215, 380
2015-10-27 17:18:41.132369, 381
2015-10-27 17:18:41.132439, 382
2015-10-27 17:18:41.148262, 383
2015-10-27 17:18:41.148426, 383
2015-10-27 17:18:41.148496, 384
2015-10-27 17:18:41.148561, 385
2015-10-27 17:18:41.164101, 386
2015-10-27 17:18:41.164193, 388
2015-10-27 17:18:41.164262, 389
2015-10-27 17:18:41.180055, 390
2015-10-27 17:18:41.180122, 390
2015-10-27 17:18:41.180171, 392
2015-10-27 17:18:41.195973, 393
2015-10-27 17:18:41.196029, 395
2015-10-27 17:18:41.196068, 396
2015-10-27 17:18:41.212128, 397
2015-10-27 17:18:41.212263, 398
2015-10-27 17:18:41.212333, 400
2015-10-27 17:18:41.228247, 401
2015-10-27 17:18:41.228388, 403
2015-10-27 17:18:41.228589, 404
2015-10-27 17:18:41.244132, 403
2015-10-27 17:18:41.244284, 404
2015-10-27 17:18:41.244420, 405
2015-10-27 17:18:41.260082, 406
2015-10-27 17:18:41.260210, 408
2015-10-27 17:18:41.260271, 410
2015-10-27 17:18:41.276032, 410
2015-10-27 17:18:41.276101, 408
2015-10-27 17:18:41.276150, 407
2015-10-27 17:18:41.292024, 409
2015-10-27 17:18:41.292182, 413
2015-10-27 17:18:41.292313, 419
2015-10-27 17:18:41.308026, 427
2015-10-27 17:18:41.308125, 437
2015-10-27 17:18:41.308193, 444
2015-10-27 17:18:41.324380, 443
2015-10-27 17:18:41.324515, 438
2015-10-27 17:18:41.324584, 439
2015-10-27 17:18:41.340279, 438
2015-10-27 17:18:41.340407, 436
2015-10-27 17:18:41.340488, 436
2015-10-27 17:18:41.356000, 434
2015-10-27 17:18:41.356168, 432
2015-10-27 17:18:41.356280, 433
2015-10-27 17:18:41.372058, 433
2015-10-27 17:18:41.372244, 433
2015-10-27 17:18:41.372336, 434
2015-10-27 17:18:41.388226, 435
2015-10-27 17:18:41.388410, 435
2015-10-27 17:18:41.388534, 438
2015-10-27 17:18:41.388647, 439
2015-10-27 17:18:41.404238, 439
2015-10-27 17:18:41.404330, 442
2015-10-27 17:18:41.404398, 452
2015-10-27 17:18:41.420186, 474
2015-10-27 17:18:41.420280, 518
2015-10-27 17:18:41.420348, 595
2015-10-27 17:18:41.436209, 679
2015-10-27 17:18:41.436302, 752
2015-10-27 17:18:41.436370, 750
2015-10-27 17:18:41.452015, 574
2015-10-27 17:18:41.452110, 373
2015-10-27 17:18:41.452179, 311
2015-10-27 17:18:41.468206, 351
2015-10-27 17:18:41.468299, 395
2015-10-27 17:18:41.468368, 422
2015-10-27 17:18:41.484062, 437
2015-10-27 17:18:41.484154, 444
2015-10-27 17:18:41.484222, 446
2015-10-27 17:18:41.499992, 453
2015-10-27 17:18:41.500085, 459
2015-10-27 17:18:41.500153, 462
2015-10-27 17:18:41.516061, 465
2015-10-27 17:18:41.516227, 468
2015-10-27 17:18:41.516360, 470
2015-10-27 17:18:41.532167, 474
2015-10-27 17:18:41.532261, 479
2015-10-27 17:18:41.532329, 481
2015-10-27 17:18:41.547994, 484
2015-10-27 17:18:41.548089, 488
2015-10-27 17:18:41.548157, 491
2015-10-27 17:18:41.563958, 493
2015-10-27 17:18:41.564052, 494
2015-10-27 17:18:41.564121, 497
2015-10-27 17:18:41.580019, 499
2015-10-27 17:18:41.580184, 502
2015-10-27 17:18:41.580267, 506
2015-10-27 17:18:41.595934, 509
2015-10-27 17:18:41.596092, 511
2015-10-27 17:18:41.596171, 516
2015-10-27 17:18:41.612220, 520
2015-10-27 17:18:41.612340, 523
2015-10-27 17:18:41.612432, 527
2015-10-27 17:18:41.628117, 532
2015-10-27 17:18:41.628228, 538
2015-10-27 17:18:41.628298, 543
2015-10-27 17:18:41.628363, 548
2015-10-27 17:18:41.644237, 552
2015-10-27 17:18:41.644332, 555
2015-10-27 17:18:41.644400, 557
2015-10-27 17:18:41.660041, 559
2015-10-27 17:18:41.660182, 558
2015-10-27 17:18:41.660287, 555
2015-10-27 17:18:41.676182, 550
2015-10-27 17:18:41.676275, 546
2015-10-27 17:18:41.676401, 542
2015-10-27 17:18:41.692132, 538
2015-10-27 17:18:41.692224, 535
2015-10-27 17:18:41.692293, 532
2015-10-27 17:18:41.707990, 529
2015-10-27 17:18:41.708140, 527
2015-10-27 17:18:41.708305, 524
2015-10-27 17:18:41.723922, 519
2015-10-27 17:18:41.724012, 515
2015-10-27 17:18:41.724079, 513
2015-10-27 17:18:41.739938, 512
2015-10-27 17:18:41.740033, 509
2015-10-27 17:18:41.740102, 507
2015-10-27 17:18:41.756116, 504
2015-10-27 17:18:41.756210, 502
2015-10-27 17:18:41.756278, 501
2015-10-27 17:18:41.772169, 498
2015-10-27 17:18:41.772269, 497
2015-10-27 17:18:41.772505, 499
2015-10-27 17:18:41.788152, 501
2015-10-27 17:18:41.788285, 501
2015-10-27 17:18:41.788381, 503
2015-10-27 17:18:41.804135, 504
2015-10-27 17:18:41.804270, 507
2015-10-27 17:18:41.804339, 510
2015-10-27 17:18:41.820134, 512
2015-10-27 17:18:41.820267, 515
2015-10-27 17:18:41.820336, 518
2015-10-27 17:18:41.835844, 521
2015-10-27 17:18:41.835954, 524
2015-10-27 17:18:41.836034, 527
2015-10-27 17:18:41.851829, 529
2015-10-27 17:18:41.851932, 531
2015-10-27 17:18:41.851990, 534
2015-10-27 17:18:41.867838, 537
2015-10-27 17:18:41.867910, 539
2015-10-27 17:18:41.867951, 540
2015-10-27 17:18:41.867989, 541
2015-10-27 17:18:41.883920, 542
2015-10-27 17:18:41.883976, 543
2015-10-27 17:18:41.884015, 543
2015-10-27 17:18:41.900322, 544
2015-10-27 17:18:41.900412, 544
2015-10-27 17:18:41.900483, 545
2015-10-27 17:18:41.915883, 545
2015-10-27 17:18:41.916357, 544
2015-10-27 17:18:41.916633, 544
2015-10-27 17:18:41.931837, 545
2015-10-27 17:18:41.931893, 545
2015-10-27 17:18:41.931931, 543
2015-10-27 17:18:41.947816, 544
2015-10-27 17:18:41.947877, 544
2015-10-27 17:18:41.947919, 544
2015-10-27 17:18:41.963899, 546
2015-10-27 17:18:41.963990, 548
2015-10-27 17:18:41.964059, 548
2015-10-27 17:18:41.979775, 548
2015-10-27 17:18:41.979832, 548
2015-10-27 17:18:41.979871, 548
2015-10-27 17:18:41.995779, 548
2015-10-27 17:18:41.995837, 549
2015-10-27 17:18:41.995876, 548
2015-10-27 17:18:42.011810, 548
2015-10-27 17:18:42.011907, 549
2015-10-27 17:18:42.011990, 549
2015-10-27 17:18:42.027793, 550
2015-10-27 17:18:42.027850, 551
2015-10-27 17:18:42.027889, 552
2015-10-27 17:18:42.043820, 553
2015-10-27 17:18:42.043946, 553
2015-10-27 17:18:42.044013, 553
2015-10-27 17:18:42.059771, 553
2015-10-27 17:18:42.059868, 554
2015-10-27 17:18:42.059945, 555
2015-10-27 17:18:42.075788, 555
2015-10-27 17:18:42.075882, 556
2015-10-27 17:18:42.075951, 556
2015-10-27 17:18:42.091923, 556
2015-10-27 17:18:42.092072, 556
2015-10-27 17:18:42.092176, 556
2015-10-27 17:18:42.107786, 556
2015-10-27 17:18:42.107900, 557
2015-10-27 17:18:42.107970, 559
2015-10-27 17:18:42.123904, 561
2015-10-27 17:18:42.124068, 561
2015-10-27 17:18:42.124139, 562
2015-10-27 17:18:42.124205, 561
2015-10-27 17:18:42.139777, 561
2015-10-27 17:18:42.139855, 562
2015-10-27 17:18:42.139913, 562
2015-10-27 17:18:42.155928, 561
2015-10-27 17:18:42.156021, 560
2015-10-27 17:18:42.156089, 558
2015-10-27 17:18:42.172036, 556
2015-10-27 17:18:42.172130, 556
2015-10-27 17:18:42.172198, 557
2015-10-27 17:18:42.187986, 561
2015-10-27 17:18:42.188081, 568
2015-10-27 17:18:42.188150, 577
2015-10-27 17:18:42.203941, 582
2015-10-27 17:18:42.204034, 581
2015-10-27 17:18:42.204103, 575
2015-10-27 17:18:42.219933, 574
2015-10-27 17:18:42.220026, 574
2015-10-27 17:18:42.220094, 572
2015-10-27 17:18:42.235995, 569
2015-10-27 17:18:42.236091, 567
2015-10-27 17:18:42.236160, 565
2015-10-27 17:18:42.251879, 564
2015-10-27 17:18:42.251972, 562
2015-10-27 17:18:42.252041, 561
2015-10-27 17:18:42.267916, 562
2015-10-27 17:18:42.268010, 563
2015-10-27 17:18:42.268078, 563
2015-10-27 17:18:42.283966, 562
2015-10-27 17:18:42.284097, 564
2015-10-27 17:18:42.284167, 565
2015-10-27 17:18:42.299777, 566
2015-10-27 17:18:42.299873, 575
2015-10-27 17:18:42.299942, 595
2015-10-27 17:18:42.315990, 633
2015-10-27 17:18:42.316121, 698
2015-10-27 17:18:42.316189, 773
2015-10-27 17:18:42.331905, 837
2015-10-27 17:18:42.332016, 832
2015-10-27 17:18:42.332104, 678
2015-10-27 17:18:42.347846, 477
2015-10-27 17:18:42.347955, 414
2015-10-27 17:18:42.348025, 454
2015-10-27 17:18:42.363852, 499
2015-10-27 17:18:42.363963, 529
2015-10-27 17:18:42.364033, 546
2015-10-27 17:18:42.364098, 556
2015-10-27 17:18:42.380073, 558
2015-10-27 17:18:42.380166, 563
2015-10-27 17:18:42.380235, 567
2015-10-27 17:18:42.395846, 568
2015-10-27 17:18:42.396000, 569
2015-10-27 17:18:42.396127, 571
2015-10-27 17:18:42.412131, 573
2015-10-27 17:18:42.412228, 575
2015-10-27 17:18:42.412297, 578
2015-10-27 17:18:42.427891, 580
2015-10-27 17:18:42.427984, 580
2015-10-27 17:18:42.428052, 580
2015-10-27 17:18:42.443695, 581
2015-10-27 17:18:42.443771, 583
2015-10-27 17:18:42.443827, 584
2015-10-27 17:18:42.459718, 587
2015-10-27 17:18:42.459782, 589
2015-10-27 17:18:42.459821, 590
2015-10-27 17:18:42.475703, 593
2015-10-27 17:18:42.475780, 597
2015-10-27 17:18:42.475827, 599
2015-10-27 17:18:42.491665, 599
2015-10-27 17:18:42.491729, 603
2015-10-27 17:18:42.491770, 607
2015-10-27 17:18:42.507661, 611
2015-10-27 17:18:42.507772, 615
2015-10-27 17:18:42.507846, 618
2015-10-27 17:18:42.523653, 622
2015-10-27 17:18:42.523721, 626
2015-10-27 17:18:42.523768, 629
2015-10-27 17:18:42.539689, 632
2015-10-27 17:18:42.539787, 634
2015-10-27 17:18:42.539858, 633
2015-10-27 17:18:42.555653, 631
2015-10-27 17:18:42.555757, 628
2015-10-27 17:18:42.555829, 623
2015-10-27 17:18:42.571668, 616
2015-10-27 17:18:42.571845, 608
2015-10-27 17:18:42.571971, 603
2015-10-27 17:18:42.587845, 599
2015-10-27 17:18:42.588102, 596
2015-10-27 17:18:42.588248, 592
2015-10-27 17:18:42.603803, 587
2015-10-27 17:18:42.603916, 583
2015-10-27 17:18:42.603985, 579
2015-10-27 17:18:42.604050, 577
2015-10-27 17:18:42.619879, 574
2015-10-27 17:18:42.619972, 571
2015-10-27 17:18:42.620040, 567
2015-10-27 17:18:42.635866, 563
2015-10-27 17:18:42.635982, 559
2015-10-27 17:18:42.636051, 555
2015-10-27 17:18:42.651868, 552
2015-10-27 17:18:42.651961, 549
2015-10-27 17:18:42.652028, 548
2015-10-27 17:18:42.667795, 548
2015-10-27 17:18:42.667889, 550
2015-10-27 17:18:42.667958, 550
2015-10-27 17:18:42.683656, 551
2015-10-27 17:18:42.683749, 552
2015-10-27 17:18:42.683817, 553
2015-10-27 17:18:42.699833, 556
2015-10-27 17:18:42.699926, 558
2015-10-27 17:18:42.699994, 559
2015-10-27 17:18:42.715775, 562
2015-10-27 17:18:42.715870, 565
2015-10-27 17:18:42.715939, 568
2015-10-27 17:18:42.731815, 571
2015-10-27 17:18:42.731910, 572
2015-10-27 17:18:42.731980, 573
2015-10-27 17:18:42.747761, 574
2015-10-27 17:18:42.747856, 573
2015-10-27 17:18:42.747925, 574
2015-10-27 17:18:42.764047, 575
2015-10-27 17:18:42.764213, 574
2015-10-27 17:18:42.764336, 574
2015-10-27 17:18:42.779929, 573
2015-10-27 17:18:42.780031, 572
2015-10-27 17:18:42.780099, 570
2015-10-27 17:18:42.795585, 570
2015-10-27 17:18:42.795682, 570
2015-10-27 17:18:42.795794, 569
2015-10-27 17:18:42.811611, 568
2015-10-27 17:18:42.811788, 566
2015-10-27 17:18:42.811881, 565
2015-10-27 17:18:42.827524, 563
2015-10-27 17:18:42.827688, 563
2015-10-27 17:18:42.827771, 563
2015-10-27 17:18:42.843517, 563
2015-10-27 17:18:42.843585, 563
2015-10-27 17:18:42.843625, 561
2015-10-27 17:18:42.843662, 561
2015-10-27 17:18:42.859597, 561
2015-10-27 17:18:42.859697, 560
2015-10-27 17:18:42.859786, 559
2015-10-27 17:18:42.875563, 558
2015-10-27 17:18:42.875634, 557
2015-10-27 17:18:42.875686, 558
2015-10-27 17:18:42.891663, 559
2015-10-27 17:18:42.891777, 560
2015-10-27 17:18:42.891866, 559
2015-10-27 17:18:42.907534, 557
2015-10-27 17:18:42.907604, 555
2015-10-27 17:18:42.907656, 556
2015-10-27 17:18:42.923549, 557
2015-10-27 17:18:42.923613, 557
2015-10-27 17:18:42.923667, 556
2015-10-27 17:18:42.939636, 555
2015-10-27 17:18:42.939765, 556
2015-10-27 17:18:42.939816, 556
2015-10-27 17:18:42.955526, 555
2015-10-27 17:18:42.955592, 554
2015-10-27 17:18:42.955639, 554
2015-10-27 17:18:42.971597, 555
2015-10-27 17:18:42.971652, 555
2015-10-27 17:18:42.971690, 555
2015-10-27 17:18:42.987653, 555
2015-10-27 17:18:42.987758, 552
2015-10-27 17:18:42.987832, 549
2015-10-27 17:18:43.003584, 548
2015-10-27 17:18:43.003640, 549
2015-10-27 17:18:43.003679, 551
2015-10-27 17:18:43.019555, 556
2015-10-27 17:18:43.019662, 564
2015-10-27 17:18:43.019741, 572
2015-10-27 17:18:43.035546, 572
2015-10-27 17:18:43.035602, 566
2015-10-27 17:18:43.035642, 564
2015-10-27 17:18:43.051717, 563
2015-10-27 17:18:43.051813, 559
2015-10-27 17:18:43.051881, 555
2015-10-27 17:18:43.067618, 552
2015-10-27 17:18:43.067728, 551
2015-10-27 17:18:43.067798, 550
2015-10-27 17:18:43.083570, 549
2015-10-27 17:18:43.083680, 548
2015-10-27 17:18:43.083750, 548
2015-10-27 17:18:43.099772, 547
2015-10-27 17:18:43.099883, 546
2015-10-27 17:18:43.099952, 546
2015-10-27 17:18:43.100018, 546
2015-10-27 17:18:43.115653, 547
2015-10-27 17:18:43.115745, 548
2015-10-27 17:18:43.115814, 558
2015-10-27 17:18:43.131595, 577
2015-10-27 17:18:43.131686, 607
2015-10-27 17:18:43.131754, 652
2015-10-27 17:18:43.147621, 710
2015-10-27 17:18:43.147712, 763
2015-10-27 17:18:43.147779, 760
2015-10-27 17:18:43.163764, 643
2015-10-27 17:18:43.163857, 458
2015-10-27 17:18:43.163926, 391
2015-10-27 17:18:43.179517, 418
2015-10-27 17:18:43.179582, 461
2015-10-27 17:18:43.179632, 489
2015-10-27 17:18:43.195530, 512
2015-10-27 17:18:43.195585, 527
2015-10-27 17:18:43.195625, 535
2015-10-27 17:18:43.211562, 539
2015-10-27 17:18:43.211760, 543
2015-10-27 17:18:43.211818, 545
2015-10-27 17:18:43.227495, 544
2015-10-27 17:18:43.227549, 545
2015-10-27 17:18:43.227588, 546
2015-10-27 17:18:43.243518, 548
2015-10-27 17:18:43.243644, 551
2015-10-27 17:18:43.243729, 553
2015-10-27 17:18:43.259563, 553
2015-10-27 17:18:43.259657, 553
2015-10-27 17:18:43.259726, 554
2015-10-27 17:18:43.275683, 554
2015-10-27 17:18:43.275780, 555
2015-10-27 17:18:43.275849, 558
2015-10-27 17:18:43.291833, 559
2015-10-27 17:18:43.291957, 559
2015-10-27 17:18:43.292047, 561
2015-10-27 17:18:43.307726, 563
2015-10-27 17:18:43.307838, 564
2015-10-27 17:18:43.307908, 567
2015-10-27 17:18:43.323713, 569
2015-10-27 17:18:43.323823, 570
2015-10-27 17:18:43.323893, 573
2015-10-27 17:18:43.339719, 576
2015-10-27 17:18:43.339862, 579
2015-10-27 17:18:43.339932, 583
2015-10-27 17:18:43.339998, 586
2015-10-27 17:18:43.355816, 589
2015-10-27 17:18:43.355926, 591
2015-10-27 17:18:43.355994, 592
2015-10-27 17:18:43.371831, 591
2015-10-27 17:18:43.371924, 589
2015-10-27 17:18:43.371992, 587
2015-10-27 17:18:43.387800, 582
2015-10-27 17:18:43.387894, 574
2015-10-27 17:18:43.387961, 567
2015-10-27 17:18:43.403679, 561
2015-10-27 17:18:43.403773, 556
2015-10-27 17:18:43.403842, 552
2015-10-27 17:18:43.419774, 548
2015-10-27 17:18:43.419893, 545
2015-10-27 17:18:43.419962, 538
2015-10-27 17:18:43.435825, 535
2015-10-27 17:18:43.435923, 532
2015-10-27 17:18:43.435992, 528
2015-10-27 17:18:43.451691, 523
2015-10-27 17:18:43.451786, 517
2015-10-27 17:18:43.451855, 512
2015-10-27 17:18:43.467674, 509
2015-10-27 17:18:43.467769, 505
2015-10-27 17:18:43.467838, 502
2015-10-27 17:18:43.483753, 498
2015-10-27 17:18:43.483851, 497
2015-10-27 17:18:43.483919, 498
2015-10-27 17:18:43.499560, 499
2015-10-27 17:18:43.499656, 499
2015-10-27 17:18:43.499725, 501
2015-10-27 17:18:43.515515, 503
2015-10-27 17:18:43.515683, 504
2015-10-27 17:18:43.515788, 506
2015-10-27 17:18:43.531442, 509
2015-10-27 17:18:43.531540, 512
2015-10-27 17:18:43.531609, 514
2015-10-27 17:18:43.547648, 516
2015-10-27 17:18:43.547800, 518
2015-10-27 17:18:43.547870, 519
2015-10-27 17:18:43.563553, 519
2015-10-27 17:18:43.563665, 520
2015-10-27 17:18:43.563896, 521
2015-10-27 17:18:43.579573, 521
2015-10-27 17:18:43.579685, 521
2015-10-27 17:18:43.579755, 519
2015-10-27 17:18:43.579821, 518
2015-10-27 17:18:43.595602, 517
2015-10-27 17:18:43.595696, 515
2015-10-27 17:18:43.595764, 514
2015-10-27 17:18:43.611515, 513
2015-10-27 17:18:43.611634, 511
2015-10-27 17:18:43.611705, 509
2015-10-27 17:18:43.627711, 509
2015-10-27 17:18:43.627804, 508
2015-10-27 17:18:43.627891, 506
2015-10-27 17:18:43.643511, 502
2015-10-27 17:18:43.643604, 501
2015-10-27 17:18:43.643673, 502
2015-10-27 17:18:43.659454, 502
2015-10-27 17:18:43.659548, 501
2015-10-27 17:18:43.659615, 500
2015-10-27 17:18:43.675640, 498
2015-10-27 17:18:43.675757, 497
2015-10-27 17:18:43.675825, 498
2015-10-27 17:18:43.691647, 499
2015-10-27 17:18:43.691773, 498
2015-10-27 17:18:43.691841, 497
2015-10-27 17:18:43.707592, 497
2015-10-27 17:18:43.707686, 497
2015-10-27 17:18:43.707755, 496
2015-10-27 17:18:43.723656, 496
2015-10-27 17:18:43.723778, 496
2015-10-27 17:18:43.723846, 497
2015-10-27 17:18:43.739455, 497
2015-10-27 17:18:43.739559, 496
2015-10-27 17:18:43.739628, 496
2015-10-27 17:18:43.755392, 497
2015-10-27 17:18:43.755488, 498
2015-10-27 17:18:43.755556, 498
2015-10-27 17:18:43.771562, 498
2015-10-27 17:18:43.771659, 499
2015-10-27 17:18:43.771728, 499
2015-10-27 17:18:43.787531, 499
2015-10-27 17:18:43.787643, 499
2015-10-27 17:18:43.787713, 500
2015-10-27 17:18:43.803482, 501
2015-10-27 17:18:43.803593, 501
2015-10-27 17:18:43.803662, 500
2015-10-27 17:18:43.819583, 499
2015-10-27 17:18:43.819749, 499
2015-10-27 17:18:43.819818, 499
2015-10-27 17:18:43.819883, 496
2015-10-27 17:18:43.835600, 493
2015-10-27 17:18:43.835692, 494
2015-10-27 17:18:43.835761, 497
2015-10-27 17:18:43.851676, 503
2015-10-27 17:18:43.851771, 512
2015-10-27 17:18:43.851840, 519
2015-10-27 17:18:43.867393, 520
2015-10-27 17:18:43.867487, 516
2015-10-27 17:18:43.867555, 513
2015-10-27 17:18:43.883565, 514
2015-10-27 17:18:43.883660, 513
2015-10-27 17:18:43.883728, 510
2015-10-27 17:18:43.899624, 508
2015-10-27 17:18:43.899742, 504
2015-10-27 17:18:43.899811, 502
2015-10-27 17:18:43.915543, 501
2015-10-27 17:18:43.915636, 501
2015-10-27 17:18:43.915704, 501
2015-10-27 17:18:43.931764, 502
2015-10-27 17:18:43.931858, 501
2015-10-27 17:18:43.931926, 499
2015-10-27 17:18:43.947584, 499
2015-10-27 17:18:43.947677, 500
2015-10-27 17:18:43.947875, 499
2015-10-27 17:18:43.963577, 502
2015-10-27 17:18:43.963672, 517
2015-10-27 17:18:43.963741, 546
2015-10-27 17:18:43.979491, 597
2015-10-27 17:18:43.979588, 671
2015-10-27 17:18:43.979657, 740
2015-10-27 17:18:43.995469, 796
2015-10-27 17:18:43.995566, 721
2015-10-27 17:18:43.995634, 520
2015-10-27 17:18:44.011554, 386
2015-10-27 17:18:44.011652, 377
2015-10-27 17:18:44.011721, 423
2015-10-27 17:18:44.027464, 454
2015-10-27 17:18:44.027616, 473
2015-10-27 17:18:44.027686, 485
2015-10-27 17:18:44.043473, 490
2015-10-27 17:18:44.043593, 493
2015-10-27 17:18:44.043663, 498
2015-10-27 17:18:44.059480, 499
2015-10-27 17:18:44.059639, 500
2015-10-27 17:18:44.059709, 501
2015-10-27 17:18:44.075443, 503
2015-10-27 17:18:44.075638, 505
2015-10-27 17:18:44.075710, 507
2015-10-27 17:18:44.075776, 509
2015-10-27 17:18:44.091488, 510
2015-10-27 17:18:44.091581, 510
2015-10-27 17:18:44.091650, 511
2015-10-27 17:18:44.107583, 512
2015-10-27 17:18:44.107675, 513
2015-10-27 17:18:44.107743, 516
2015-10-27 17:18:44.123487, 518
2015-10-27 17:18:44.123579, 519
2015-10-27 17:18:44.123648, 521
2015-10-27 17:18:44.139543, 524
2015-10-27 17:18:44.139661, 526
2015-10-27 17:18:44.139730, 527
2015-10-27 17:18:44.155537, 529
2015-10-27 17:18:44.155655, 532
2015-10-27 17:18:44.155722, 535
2015-10-27 17:18:44.171330, 539
2015-10-27 17:18:44.171487, 543
2015-10-27 17:18:44.171673, 545
2015-10-27 17:18:44.187185, 548
2015-10-27 17:18:44.187245, 552
2015-10-27 17:18:44.187284, 554
2015-10-27 17:18:44.203277, 556
2015-10-27 17:18:44.203377, 558
2015-10-27 17:18:44.203499, 557
2015-10-27 17:18:44.219208, 554
2015-10-27 17:18:44.219305, 548
2015-10-27 17:18:44.219373, 543
2015-10-27 17:18:44.235237, 539
2015-10-27 17:18:44.235307, 533
2015-10-27 17:18:44.235354, 528
2015-10-27 17:18:44.251172, 524
2015-10-27 17:18:44.251230, 522
2015-10-27 17:18:44.251275, 519
2015-10-27 17:18:44.267192, 514
2015-10-27 17:18:44.267261, 511
2015-10-27 17:18:44.267308, 507
2015-10-27 17:18:44.283176, 504
2015-10-27 17:18:44.283243, 501
2015-10-27 17:18:44.283283, 497
2015-10-27 17:18:44.299378, 494
2015-10-27 17:18:44.299491, 492
2015-10-27 17:18:44.299560, 490
2015-10-27 17:18:44.315432, 488
2015-10-27 17:18:44.315544, 486
2015-10-27 17:18:44.315613, 483
2015-10-27 17:18:44.315679, 483
2015-10-27 17:18:44.331352, 484
2015-10-27 17:18:44.331484, 484
2015-10-27 17:18:44.331568, 485
2015-10-27 17:18:44.347577, 486
2015-10-27 17:18:44.347672, 487
2015-10-27 17:18:44.347739, 488
2015-10-27 17:18:44.363561, 489
2015-10-27 17:18:44.363657, 491
2015-10-27 17:18:44.363726, 493
2015-10-27 17:18:44.379457, 494
2015-10-27 17:18:44.379552, 496
2015-10-27 17:18:44.379620, 497
2015-10-27 17:18:44.395280, 500
2015-10-27 17:18:44.395439, 503
2015-10-27 17:18:44.395658, 504
2015-10-27 17:18:44.411515, 504
2015-10-27 17:18:44.411634, 505
2015-10-27 17:18:44.411702, 506
2015-10-27 17:18:44.427250, 506
2015-10-27 17:18:44.427344, 506
2015-10-27 17:18:44.427413, 507
2015-10-27 17:18:44.443450, 507
2015-10-27 17:18:44.443558, 507
2015-10-27 17:18:44.443627, 506
2015-10-27 17:18:44.459152, 506
2015-10-27 17:18:44.459246, 504
2015-10-27 17:18:44.459314, 502
2015-10-27 17:18:44.475388, 500
2015-10-27 17:18:44.475518, 500
2015-10-27 17:18:44.475588, 499
2015-10-27 17:18:44.491351, 497
2015-10-27 17:18:44.491448, 496
2015-10-27 17:18:44.491516, 496
2015-10-27 17:18:44.507324, 498
2015-10-27 17:18:44.507420, 498
2015-10-27 17:18:44.507489, 497
2015-10-27 17:18:44.523341, 496
2015-10-27 17:18:44.523506, 496
2015-10-27 17:18:44.523575, 495
2015-10-27 17:18:44.539331, 497
2015-10-27 17:18:44.539496, 498
2015-10-27 17:18:44.539565, 497
2015-10-27 17:18:44.555325, 498
2015-10-27 17:18:44.555489, 497
2015-10-27 17:18:44.555558, 497
2015-10-27 17:18:44.555622, 497
2015-10-27 17:18:44.571446, 497
2015-10-27 17:18:44.571539, 497
2015-10-27 17:18:44.571606, 497
2015-10-27 17:18:44.587198, 497
2015-10-27 17:18:44.587291, 498
2015-10-27 17:18:44.587379, 497
2015-10-27 17:18:44.603191, 497
2015-10-27 17:18:44.603284, 497
2015-10-27 17:18:44.603352, 498
2015-10-27 17:18:44.619393, 498
2015-10-27 17:18:44.619509, 498
2015-10-27 17:18:44.619577, 497
2015-10-27 17:18:44.635240, 496
2015-10-27 17:18:44.635334, 495
2015-10-27 17:18:44.635402, 495
2015-10-27 17:18:44.651399, 496
2015-10-27 17:18:44.651514, 498
2015-10-27 17:18:44.651583, 500
2015-10-27 17:18:44.667103, 501
2015-10-27 17:18:44.667366, 501
2015-10-27 17:18:44.667540, 499
2015-10-27 17:18:44.683380, 495
2015-10-27 17:18:44.683475, 495
2015-10-27 17:18:44.683545, 497
2015-10-27 17:18:44.699365, 500
2015-10-27 17:18:44.699484, 507
2015-10-27 17:18:44.699551, 515
2015-10-27 17:18:44.715249, 520
2015-10-27 17:18:44.715345, 519
2015-10-27 17:18:44.715414, 515
2015-10-27 17:18:44.731372, 514
2015-10-27 17:18:44.731476, 513
2015-10-27 17:18:44.731597, 511
2015-10-27 17:18:44.747324, 509
2015-10-27 17:18:44.747422, 505
2015-10-27 17:18:44.747508, 502
2015-10-27 17:18:44.763112, 500
2015-10-27 17:18:44.763226, 498
2015-10-27 17:18:44.763296, 498
2015-10-27 17:18:44.779324, 498
2015-10-27 17:18:44.779438, 497
2015-10-27 17:18:44.779506, 496
2015-10-27 17:18:44.795039, 495
2015-10-27 17:18:44.795153, 495
2015-10-27 17:18:44.795224, 495
2015-10-27 17:18:44.795295, 495
2015-10-27 17:18:44.811056, 500
2015-10-27 17:18:44.811144, 519
2015-10-27 17:18:44.811212, 558
2015-10-27 17:18:44.827116, 628
2015-10-27 17:18:44.827208, 713
2015-10-27 17:18:44.827277, 786
2015-10-27 17:18:44.843166, 810
2015-10-27 17:18:44.843282, 660
2015-10-27 17:18:44.843351, 452
2015-10-27 17:18:44.859158, 368
2015-10-27 17:18:44.859291, 395
2015-10-27 17:18:44.859364, 437
2015-10-27 17:18:44.875181, 461
2015-10-27 17:18:44.875273, 474
2015-10-27 17:18:44.875342, 481
2015-10-27 17:18:44.891214, 482
2015-10-27 17:18:44.891308, 486
2015-10-27 17:18:44.891375, 489
2015-10-27 17:18:44.907277, 490
2015-10-27 17:18:44.907372, 492
2015-10-27 17:18:44.907441, 494
2015-10-27 17:18:44.923289, 496
2015-10-27 17:18:44.923387, 497
2015-10-27 17:18:44.923455, 499
2015-10-27 17:18:44.939232, 500
2015-10-27 17:18:44.939349, 502
2015-10-27 17:18:44.939417, 503
2015-10-27 17:18:44.955251, 504
2015-10-27 17:18:44.955386, 506
2015-10-27 17:18:44.955455, 507
2015-10-27 17:18:44.971137, 509
2015-10-27 17:18:44.971234, 511
2015-10-27 17:18:44.971303, 512
2015-10-27 17:18:44.987272, 514
2015-10-27 17:18:44.987406, 516
2015-10-27 17:18:44.987475, 518
2015-10-27 17:18:45.003213, 521
2015-10-27 17:18:45.003324, 524
2015-10-27 17:18:45.003394, 528
2015-10-27 17:18:45.019116, 531
2015-10-27 17:18:45.019228, 533
2015-10-27 17:18:45.019296, 537
2015-10-27 17:18:45.035063, 542
2015-10-27 17:18:45.035274, 545
2015-10-27 17:18:45.035355, 548
2015-10-27 17:18:45.035424, 551
2015-10-27 17:18:45.051218, 554
2015-10-27 17:18:45.051351, 554
2015-10-27 17:18:45.051423, 553
2015-10-27 17:18:45.067356, 549
2015-10-27 17:18:45.067449, 544
2015-10-27 17:18:45.067516, 539
2015-10-27 17:18:45.083337, 534
2015-10-27 17:18:45.083432, 529
2015-10-27 17:18:45.083500, 523
2015-10-27 17:18:45.099232, 519
2015-10-27 17:18:45.099326, 516
2015-10-27 17:18:45.099394, 513
2015-10-27 17:18:45.115279, 510
2015-10-27 17:18:45.115374, 505
2015-10-27 17:18:45.115443, 501
2015-10-27 17:18:45.131327, 498
2015-10-27 17:18:45.131444, 495
2015-10-27 17:18:45.131513, 491
2015-10-27 17:18:45.147170, 489
2015-10-27 17:18:45.147263, 487
2015-10-27 17:18:45.147332, 484
2015-10-27 17:18:45.163369, 482
2015-10-27 17:18:45.163467, 480
2015-10-27 17:18:45.163556, 479
2015-10-27 17:18:45.179079, 478
2015-10-27 17:18:45.179175, 477
2015-10-27 17:18:45.179269, 478
2015-10-27 17:18:45.195318, 479
2015-10-27 17:18:45.195411, 482
2015-10-27 17:18:45.195498, 484
2015-10-27 17:18:45.211240, 486
2015-10-27 17:18:45.211364, 487
2015-10-27 17:18:45.211433, 488
2015-10-27 17:18:45.227166, 490
2015-10-27 17:18:45.227263, 491
2015-10-27 17:18:45.227331, 494
2015-10-27 17:18:45.243304, 496
2015-10-27 17:18:45.243426, 497
2015-10-27 17:18:45.243495, 499
2015-10-27 17:18:45.259153, 500
2015-10-27 17:18:45.259266, 501
2015-10-27 17:18:45.259336, 501
2015-10-27 17:18:45.275104, 503
2015-10-27 17:18:45.275219, 504
2015-10-27 17:18:45.275290, 505
2015-10-27 17:18:45.291168, 505
2015-10-27 17:18:45.291319, 504
2015-10-27 17:18:45.291388, 504
2015-10-27 17:18:45.291453, 504
2015-10-27 17:18:45.307019, 504
2015-10-27 17:18:45.307111, 505
2015-10-27 17:18:45.307179, 504
2015-10-27 17:18:45.323180, 504
2015-10-27 17:18:45.323274, 504
2015-10-27 17:18:45.323342, 502
2015-10-27 17:18:45.339219, 501
2015-10-27 17:18:45.339312, 502
2015-10-27 17:18:45.339381, 501
2015-10-27 17:18:45.355285, 500
2015-10-27 17:18:45.355404, 500
2015-10-27 17:18:45.355472, 500
2015-10-27 17:18:45.371248, 499
2015-10-27 17:18:45.371341, 499
2015-10-27 17:18:45.371409, 498
2015-10-27 17:18:45.387186, 499
2015-10-27 17:18:45.387279, 499
2015-10-27 17:18:45.387347, 501
2015-10-27 17:18:45.403174, 500
2015-10-27 17:18:45.403267, 500
2015-10-27 17:18:45.403334, 502
2015-10-27 17:18:45.419176, 503
2015-10-27 17:18:45.419271, 502
2015-10-27 17:18:45.419339, 500
2015-10-27 17:18:45.435095, 500
2015-10-27 17:18:45.435190, 500
2015-10-27 17:18:45.435258, 502
2015-10-27 17:18:45.451152, 502
2015-10-27 17:18:45.451327, 502
2015-10-27 17:18:45.451405, 501
2015-10-27 17:18:45.467056, 501
2015-10-27 17:18:45.467152, 502
2015-10-27 17:18:45.467221, 501
2015-10-27 17:18:45.483022, 501
2015-10-27 17:18:45.483118, 502
2015-10-27 17:18:45.483186, 502
2015-10-27 17:18:45.499120, 503
2015-10-27 17:18:45.499285, 504
2015-10-27 17:18:45.499355, 504
2015-10-27 17:18:45.515026, 504
2015-10-27 17:18:45.515138, 504
2015-10-27 17:18:45.515208, 503
2015-10-27 17:18:45.531040, 499
2015-10-27 17:18:45.531152, 496
2015-10-27 17:18:45.531222, 496
2015-10-27 17:18:45.531287, 500
2015-10-27 17:18:45.546957, 505
2015-10-27 17:18:45.547052, 514
2015-10-27 17:18:45.547119, 523
2015-10-27 17:18:45.563158, 526
2015-10-27 17:18:45.563252, 522
2015-10-27 17:18:45.563319, 518
2015-10-27 17:18:45.579270, 518
2015-10-27 17:18:45.579364, 516
2015-10-27 17:18:45.579434, 513
2015-10-27 17:18:45.595172, 511
2015-10-27 17:18:45.595267, 509
2015-10-27 17:18:45.595336, 507
2015-10-27 17:18:45.611053, 505
2015-10-27 17:18:45.611147, 503
2015-10-27 17:18:45.611215, 503
2015-10-27 17:18:45.627206, 502
2015-10-27 17:18:45.627328, 502
2015-10-27 17:18:45.627399, 502
2015-10-27 17:18:45.643368, 502
2015-10-27 17:18:45.643570, 501
2015-10-27 17:18:45.643756, 501
2015-10-27 17:18:45.659142, 504
2015-10-27 17:18:45.659238, 516
2015-10-27 17:18:45.659307, 544
2015-10-27 17:18:45.675137, 598
2015-10-27 17:18:45.675232, 680
2015-10-27 17:18:45.675301, 757
2015-10-27 17:18:45.690841, 824
2015-10-27 17:18:45.690914, 760
2015-10-27 17:18:45.690961, 552
2015-10-27 17:18:45.706868, 394
2015-10-27 17:18:45.707034, 374
2015-10-27 17:18:45.707187, 421
2015-10-27 17:18:45.722866, 455
2015-10-27 17:18:45.722938, 476
2015-10-27 17:18:45.722988, 486
2015-10-27 17:18:45.738811, 489
2015-10-27 17:18:45.738896, 495
2015-10-27 17:18:45.738948, 501
2015-10-27 17:18:45.754781, 503
2015-10-27 17:18:45.754872, 502
2015-10-27 17:18:45.754920, 503
2015-10-27 17:18:45.770796, 506
2015-10-27 17:18:45.771028, 508
2015-10-27 17:18:45.771102, 511
2015-10-27 17:18:45.771157, 512
2015-10-27 17:18:45.786821, 515
2015-10-27 17:18:45.786900, 516
2015-10-27 17:18:45.786945, 517
2015-10-27 17:18:45.802850, 517
2015-10-27 17:18:45.802915, 518
2015-10-27 17:18:45.802962, 520
2015-10-27 17:18:45.818925, 522
2015-10-27 17:18:45.818997, 525
2015-10-27 17:18:45.819044, 526
2015-10-27 17:18:45.834844, 529
2015-10-27 17:18:45.834898, 531
2015-10-27 17:18:45.834937, 531
2015-10-27 17:18:45.851083, 534
2015-10-27 17:18:45.851190, 538
2015-10-27 17:18:45.851277, 540
2015-10-27 17:18:45.866849, 543
2015-10-27 17:18:45.866949, 547
2015-10-27 17:18:45.867114, 551
2015-10-27 17:18:45.882882, 555
2015-10-27 17:18:45.882976, 557
2015-10-27 17:18:45.883045, 561
2015-10-27 17:18:45.898809, 563
2015-10-27 17:18:45.898903, 564
2015-10-27 17:18:45.898972, 562
2015-10-27 17:18:45.915078, 560
2015-10-27 17:18:45.915201, 556
2015-10-27 17:18:45.915269, 551
2015-10-27 17:18:45.930771, 546
2015-10-27 17:18:45.930868, 541
2015-10-27 17:18:45.930937, 537
2015-10-27 17:18:45.946802, 532
2015-10-27 17:18:45.946959, 527
2015-10-27 17:18:45.947087, 523
2015-10-27 17:18:45.962780, 519
2015-10-27 17:18:45.962848, 515
2015-10-27 17:18:45.962903, 511
2015-10-27 17:18:45.978690, 506
2015-10-27 17:18:45.978764, 503
2015-10-27 17:18:45.978823, 501
2015-10-27 17:18:45.994677, 498
2015-10-27 17:18:45.994746, 494
2015-10-27 17:18:45.994794, 491
2015-10-27 17:18:46.010744, 488
2015-10-27 17:18:46.010822, 486
2015-10-27 17:18:46.010870, 484
2015-10-27 17:18:46.010915, 482
2015-10-27 17:18:46.026777, 482
2015-10-27 17:18:46.026872, 481
2015-10-27 17:18:46.026957, 481
2015-10-27 17:18:46.043161, 484
2015-10-27 17:18:46.043254, 486
2015-10-27 17:18:46.043322, 488
2015-10-27 17:18:46.059033, 490
2015-10-27 17:18:46.059126, 492
2015-10-27 17:18:46.059194, 494
2015-10-27 17:18:46.074792, 496
2015-10-27 17:18:46.074889, 497
2015-10-27 17:18:46.075018, 498
2015-10-27 17:18:46.090752, 498
2015-10-27 17:18:46.090843, 499
2015-10-27 17:18:46.090910, 501
2015-10-27 17:18:46.107037, 501
2015-10-27 17:18:46.107153, 502
2015-10-27 17:18:46.107222, 504
2015-10-27 17:18:46.123014, 506
2015-10-27 17:18:46.123108, 506
2015-10-27 17:18:46.123177, 506
2015-10-27 17:18:46.138999, 504
2015-10-27 17:18:46.139125, 504
2015-10-27 17:18:46.139193, 504
2015-10-27 17:18:46.154913, 504
2015-10-27 17:18:46.155008, 503
2015-10-27 17:18:46.155076, 502
2015-10-27 17:18:46.171013, 500
2015-10-27 17:18:46.171107, 498
2015-10-27 17:18:46.171177, 497
2015-10-27 17:18:46.186659, 497
2015-10-27 17:18:46.186727, 496
2015-10-27 17:18:46.186775, 496
2015-10-27 17:18:46.202660, 496
2015-10-27 17:18:46.202716, 495
2015-10-27 17:18:46.202754, 494
2015-10-27 17:18:46.218654, 494
2015-10-27 17:18:46.218710, 494
2015-10-27 17:18:46.218748, 494
2015-10-27 17:18:46.234641, 492
2015-10-27 17:18:46.234746, 489
2015-10-27 17:18:46.234819, 491
2015-10-27 17:18:46.250609, 492
2015-10-27 17:18:46.250716, 491
2015-10-27 17:18:46.250787, 489
2015-10-27 17:18:46.266763, 489
2015-10-27 17:18:46.266924, 489
2015-10-27 17:18:46.266994, 488
2015-10-27 17:18:46.267061, 489
2015-10-27 17:18:46.282874, 489
2015-10-27 17:18:46.282971, 487
2015-10-27 17:18:46.283050, 485
2015-10-27 17:18:46.298834, 483
2015-10-27 17:18:46.298928, 482
2015-10-27 17:18:46.299041, 481
2015-10-27 17:18:46.314730, 482
2015-10-27 17:18:46.314824, 483
2015-10-27 17:18:46.314893, 481
2015-10-27 17:18:46.330657, 478
2015-10-27 17:18:46.330747, 477
2015-10-27 17:18:46.330816, 475
2015-10-27 17:18:46.346647, 474
2015-10-27 17:18:46.346743, 474
2015-10-27 17:18:46.346812, 474
2015-10-27 17:18:46.362628, 471
2015-10-27 17:18:46.362723, 467
2015-10-27 17:18:46.363086, 463
2015-10-27 17:18:46.378637, 461
2015-10-27 17:18:46.378727, 461
2015-10-27 17:18:46.378774, 463
2015-10-27 17:18:46.394615, 468
2015-10-27 17:18:46.394673, 476
2015-10-27 17:18:46.394712, 481
2015-10-27 17:18:46.410675, 479
2015-10-27 17:18:46.410893, 472
2015-10-27 17:18:46.410989, 468
2015-10-27 17:18:46.426638, 466
2015-10-27 17:18:46.426735, 462
2015-10-27 17:18:46.426824, 457
2015-10-27 17:18:46.442682, 452
2015-10-27 17:18:46.442841, 450
2015-10-27 17:18:46.442967, 448
2015-10-27 17:18:46.458742, 445
2015-10-27 17:18:46.458838, 442
2015-10-27 17:18:46.458907, 440
2015-10-27 17:18:46.474771, 440
2015-10-27 17:18:46.474885, 438
2015-10-27 17:18:46.474953, 433
2015-10-27 17:18:46.490817, 430
2015-10-27 17:18:46.490932, 428
2015-10-27 17:18:46.491002, 429
2015-10-27 17:18:46.506797, 437
2015-10-27 17:18:46.506959, 451
2015-10-27 17:18:46.507030, 477
2015-10-27 17:18:46.507096, 515
2015-10-27 17:18:46.522749, 570
2015-10-27 17:18:46.522872, 620
2015-10-27 17:18:46.522944, 635
2015-10-27 17:18:46.538812, 539
2015-10-27 17:18:46.538971, 354
2015-10-27 17:18:46.539099, 261
2015-10-27 17:18:46.554821, 272
2015-10-27 17:18:46.554894, 318
2015-10-27 17:18:46.554969, 346
2015-10-27 17:18:46.570807, 368
2015-10-27 17:18:46.570903, 381
2015-10-27 17:18:46.570973, 389
2015-10-27 17:18:46.586771, 391
2015-10-27 17:18:46.586866, 393
2015-10-27 17:18:46.586935, 394
2015-10-27 17:18:46.602641, 393
2015-10-27 17:18:46.602797, 390
2015-10-27 17:18:46.602923, 388
2015-10-27 17:18:46.618622, 387
2015-10-27 17:18:46.618794, 386
2015-10-27 17:18:46.618951, 385
2015-10-27 17:18:46.634662, 384
2015-10-27 17:18:46.634761, 384
2015-10-27 17:18:46.634831, 384
2015-10-27 17:18:46.650628, 382
2015-10-27 17:18:46.650720, 380
2015-10-27 17:18:46.650788, 381
2015-10-27 17:18:46.666564, 379
2015-10-27 17:18:46.666635, 378
2015-10-27 17:18:46.666684, 379
2015-10-27 17:18:46.682517, 380
2015-10-27 17:18:46.682574, 380
2015-10-27 17:18:46.682613, 381
2015-10-27 17:18:46.698494, 381
2015-10-27 17:18:46.698554, 381
2015-10-27 17:18:46.698594, 382
2015-10-27 17:18:46.714540, 384
2015-10-27 17:18:46.714623, 387
2015-10-27 17:18:46.714671, 388
2015-10-27 17:18:46.730526, 389
2015-10-27 17:18:46.730594, 390
2015-10-27 17:18:46.730633, 390
2015-10-27 17:18:46.746469, 388
2015-10-27 17:18:46.746593, 387
2015-10-27 17:18:46.746663, 383
2015-10-27 17:18:46.746730, 377
2015-10-27 17:18:46.762554, 371
2015-10-27 17:18:46.762647, 364
2015-10-27 17:18:46.762717, 354
2015-10-27 17:18:46.778600, 347
2015-10-27 17:18:46.778693, 342
2015-10-27 17:18:46.778761, 335
2015-10-27 17:18:46.794540, 330
2015-10-27 17:18:46.794616, 325
2015-10-27 17:18:46.794671, 320
2015-10-27 17:18:46.810684, 315
2015-10-27 17:18:46.810777, 309
2015-10-27 17:18:46.810845, 302
2015-10-27 17:18:46.826658, 295
2015-10-27 17:18:46.826751, 290
2015-10-27 17:18:46.826819, 287
2015-10-27 17:18:46.842518, 282
2015-10-27 17:18:46.842612, 275
2015-10-27 17:18:46.842681, 271
2015-10-27 17:18:46.858527, 267
2015-10-27 17:18:46.858684, 265
2015-10-27 17:18:46.858798, 263
2015-10-27 17:18:46.874528, 264
2015-10-27 17:18:46.874930, 264
2015-10-27 17:18:46.875038, 265
2015-10-27 17:18:46.890509, 266
2015-10-27 17:18:46.890604, 265
2015-10-27 17:18:46.890672, 266
2015-10-27 17:18:46.906495, 266
2015-10-27 17:18:46.906592, 266
2015-10-27 17:18:46.906691, 269
2015-10-27 17:18:46.922469, 271
2015-10-27 17:18:46.922566, 272
2015-10-27 17:18:46.922636, 274
2015-10-27 17:18:46.938636, 273
2015-10-27 17:18:46.938789, 273
2015-10-27 17:18:46.938906, 275
2015-10-27 17:18:46.954404, 274
2015-10-27 17:18:46.954484, 274
2015-10-27 17:18:46.954532, 273
2015-10-27 17:18:46.970585, 273
2015-10-27 17:18:46.970697, 272
2015-10-27 17:18:46.970772, 269
2015-10-27 17:18:46.986719, 266
2015-10-27 17:18:46.986831, 266
2015-10-27 17:18:46.986900, 268
2015-10-27 17:18:46.986965, 268
2015-10-27 17:18:47.002589, 266
2015-10-27 17:18:47.002680, 265
2015-10-27 17:18:47.002747, 262
2015-10-27 17:18:47.018845, 261
2015-10-27 17:18:47.018940, 261
2015-10-27 17:18:47.019008, 261
2015-10-27 17:18:47.034717, 261
2015-10-27 17:18:47.034810, 259
2015-10-27 17:18:47.034879, 258
2015-10-27 17:18:47.050653, 256
2015-10-27 17:18:47.050746, 258
2015-10-27 17:18:47.050814, 260
2015-10-27 17:18:47.066788, 258
2015-10-27 17:18:47.066904, 258
2015-10-27 17:18:47.066972, 258
2015-10-27 17:18:47.082677, 258
2015-10-27 17:18:47.082793, 257
2015-10-27 17:18:47.082862, 261
2015-10-27 17:18:47.098666, 263
2015-10-27 17:18:47.098760, 263
2015-10-27 17:18:47.098827, 261
2015-10-27 17:18:47.114699, 264
2015-10-27 17:18:47.114823, 266
2015-10-27 17:18:47.114892, 267
2015-10-27 17:18:47.130677, 268
2015-10-27 17:18:47.130770, 267
2015-10-27 17:18:47.130838, 268
2015-10-27 17:18:47.146762, 269
2015-10-27 17:18:47.146887, 271
2015-10-27 17:18:47.146957, 272
2015-10-27 17:18:47.162716, 273
2015-10-27 17:18:47.162850, 274
2015-10-27 17:18:47.162919, 272
2015-10-27 17:18:47.182093, 270
2015-10-27 17:18:47.182213, 269
2015-10-27 17:18:47.182299, 272
2015-10-27 17:18:47.194513, 277
2015-10-27 17:18:47.194622, 283
2015-10-27 17:18:47.194680, 292
2015-10-27 17:18:47.210481, 301
2015-10-27 17:18:47.210602, 307
2015-10-27 17:18:47.210796, 304
2015-10-27 17:18:47.226475, 300
2015-10-27 17:18:47.226597, 301
2015-10-27 17:18:47.226670, 301
2015-10-27 17:18:47.242703, 300
2015-10-27 17:18:47.242858, 299
2015-10-27 17:18:47.242961, 299
2015-10-27 17:18:47.243051, 301
2015-10-27 17:18:47.258502, 303
2015-10-27 17:18:47.258607, 305
2015-10-27 17:18:47.258697, 306
2015-10-27 17:18:47.274528, 305
2015-10-27 17:18:47.274631, 307
2015-10-27 17:18:47.274720, 308
2015-10-27 17:18:47.290725, 311
2015-10-27 17:18:47.290842, 313
2015-10-27 17:18:47.290928, 318
2015-10-27 17:18:47.306448, 327
2015-10-27 17:18:47.306560, 345
2015-10-27 17:18:47.306648, 368
2015-10-27 17:18:47.322480, 401
2015-10-27 17:18:47.322576, 450
2015-10-27 17:18:47.322659, 499
2015-10-27 17:18:47.338428, 535
2015-10-27 17:18:47.338544, 485
2015-10-27 17:18:47.338593, 345
2015-10-27 17:18:47.354414, 227
2015-10-27 17:18:47.354480, 211
2015-10-27 17:18:47.354533, 254
2015-10-27 17:18:47.370417, 290
2015-10-27 17:18:47.370500, 320
2015-10-27 17:18:47.370554, 340
2015-10-27 17:18:47.386392, 351
2015-10-27 17:18:47.386472, 360
2015-10-27 17:18:47.386531, 366
2015-10-27 17:18:47.402409, 373
2015-10-27 17:18:47.402491, 378
2015-10-27 17:18:47.402549, 381
2015-10-27 17:18:47.418571, 385
2015-10-27 17:18:47.418668, 390
2015-10-27 17:18:47.418736, 395
2015-10-27 17:18:47.434599, 402
2015-10-27 17:18:47.434695, 403
2015-10-27 17:18:47.434765, 407
2015-10-27 17:18:47.450364, 412
2015-10-27 17:18:47.450462, 416
2015-10-27 17:18:47.450522, 419
2015-10-27 17:18:47.466353, 424
2015-10-27 17:18:47.466467, 428
2015-10-27 17:18:47.466537, 433
2015-10-27 17:18:47.482473, 438
2015-10-27 17:18:47.482560, 444
2015-10-27 17:18:47.482608, 445
2015-10-27 17:18:47.482653, 450
2015-10-27 17:18:47.498442, 455
2015-10-27 17:18:47.498524, 461
2015-10-27 17:18:47.498575, 470
2015-10-27 17:18:47.514490, 474
2015-10-27 17:18:47.514568, 478
2015-10-27 17:18:47.514624, 486
2015-10-27 17:18:47.530419, 494
2015-10-27 17:18:47.530749, 497
2015-10-27 17:18:47.530845, 500
2015-10-27 17:18:47.546495, 506
2015-10-27 17:18:47.546634, 510
2015-10-27 17:18:47.546744, 513
2015-10-27 17:18:47.562481, 514
2015-10-27 17:18:47.562647, 511
2015-10-27 17:18:47.562776, 508
2015-10-27 17:18:47.578450, 506
2015-10-27 17:18:47.578614, 505
2015-10-27 17:18:47.578762, 503
2015-10-27 17:18:47.594443, 499
2015-10-27 17:18:47.594598, 499
2015-10-27 17:18:47.594737, 496
2015-10-27 17:18:47.610434, 495
2015-10-27 17:18:47.610529, 492
2015-10-27 17:18:47.610599, 491
2015-10-27 17:18:47.626350, 491
2015-10-27 17:18:47.626596, 490
2015-10-27 17:18:47.626682, 488
2015-10-27 17:18:47.642350, 489
2015-10-27 17:18:47.642459, 491
2015-10-27 17:18:47.642543, 491
2015-10-27 17:18:47.658410, 488
2015-10-27 17:18:47.658553, 489
2015-10-27 17:18:47.658670, 491
2015-10-27 17:18:47.674490, 493
2015-10-27 17:18:47.674618, 495
2015-10-27 17:18:47.674695, 497
2015-10-27 17:18:47.690385, 501
2015-10-27 17:18:47.690540, 505
2015-10-27 17:18:47.690633, 509
2015-10-27 17:18:47.706272, 512
2015-10-27 17:18:47.706384, 516
2015-10-27 17:18:47.706455, 521
2015-10-27 17:18:47.722356, 524
2015-10-27 17:18:47.722502, 529
2015-10-27 17:18:47.722587, 534
2015-10-27 17:18:47.722653, 539
2015-10-27 17:18:47.738365, 542
2015-10-27 17:18:47.738463, 547
2015-10-27 17:18:47.738531, 550
2015-10-27 17:18:47.754438, 552
2015-10-27 17:18:47.754531, 555
2015-10-27 17:18:47.754599, 557
2015-10-27 17:18:47.770452, 559
2015-10-27 17:18:47.770546, 561
2015-10-27 17:18:47.770616, 565
2015-10-27 17:18:47.786446, 567
2015-10-27 17:18:47.786540, 567
2015-10-27 17:18:47.786609, 569
2015-10-27 17:18:47.802445, 570
2015-10-27 17:18:47.802638, 571
2015-10-27 17:18:47.802723, 572
2015-10-27 17:18:47.818229, 573
2015-10-27 17:18:47.818287, 576
2015-10-27 17:18:47.818337, 580
2015-10-27 17:18:47.834405, 583
2015-10-27 17:18:47.834500, 583
2015-10-27 17:18:47.834570, 583
2015-10-27 17:18:47.850285, 584
2015-10-27 17:18:47.850472, 586
2015-10-27 17:18:47.850635, 587
2015-10-27 17:18:47.866259, 589
2015-10-27 17:18:47.866368, 591
2015-10-27 17:18:47.866445, 594
2015-10-27 17:18:47.882274, 596
2015-10-27 17:18:47.882334, 597
2015-10-27 17:18:47.882372, 598
2015-10-27 17:18:47.898173, 601
2015-10-27 17:18:47.898239, 603
2015-10-27 17:18:47.898303, 605
2015-10-27 17:18:47.914259, 607
2015-10-27 17:18:47.914430, 608
2015-10-27 17:18:47.914515, 608
2015-10-27 17:18:47.930885, 611
2015-10-27 17:18:47.931140, 614
2015-10-27 17:18:47.931271, 614
2015-10-27 17:18:47.946178, 614
2015-10-27 17:18:47.946267, 617
2015-10-27 17:18:47.946321, 620
2015-10-27 17:18:47.962192, 620
2015-10-27 17:18:47.962302, 621
2015-10-27 17:18:47.962441, 621
2015-10-27 17:18:47.962624, 621
2015-10-27 17:18:47.978307, 621
2015-10-27 17:18:47.978462, 623
2015-10-27 17:18:47.978535, 627
2015-10-27 17:18:47.994534, 634
2015-10-27 17:18:47.994691, 644
2015-10-27 17:18:47.994811, 650
2015-10-27 17:18:48.010538, 652
2015-10-27 17:18:48.010632, 648
2015-10-27 17:18:48.010701, 646
2015-10-27 17:18:48.026382, 646
2015-10-27 17:18:48.026476, 644
2015-10-27 17:18:48.026545, 642
2015-10-27 17:18:48.042567, 640
2015-10-27 17:18:48.042694, 638
2015-10-27 17:18:48.043128, 639
2015-10-27 17:18:48.058254, 638
2015-10-27 17:18:48.058509, 637
2015-10-27 17:18:48.058598, 635
2015-10-27 17:18:48.074225, 637
2015-10-27 17:18:48.074321, 638
2015-10-27 17:18:48.074390, 640
2015-10-27 17:18:48.090222, 641
2015-10-27 17:18:48.090321, 640
2015-10-27 17:18:48.090388, 640
2015-10-27 17:18:48.106365, 646
2015-10-27 17:18:48.106459, 660
2015-10-27 17:18:48.106528, 684
2015-10-27 17:18:48.122387, 726
2015-10-27 17:18:48.122517, 789
2015-10-27 17:18:48.122585, 851
2015-10-27 17:18:48.138193, 900
2015-10-27 17:18:48.138296, 841
2015-10-27 17:18:48.138365, 672
2015-10-27 17:18:48.154328, 547
2015-10-27 17:18:48.154429, 531
2015-10-27 17:18:48.154497, 573
2015-10-27 17:18:48.170331, 604
2015-10-27 17:18:48.170427, 624
2015-10-27 17:18:48.170496, 637
2015-10-27 17:18:48.186137, 643
2015-10-27 17:18:48.186289, 642
2015-10-27 17:18:48.186394, 645
2015-10-27 17:18:48.202502, 648
2015-10-27 17:18:48.202660, 648
2015-10-27 17:18:48.202835, 650
2015-10-27 17:18:48.218507, 650
2015-10-27 17:18:48.218694, 653
2015-10-27 17:18:48.218882, 654
2015-10-27 17:18:48.219126, 655
2015-10-27 17:18:48.235654, 656
2015-10-27 17:18:48.235764, 657
2015-10-27 17:18:48.235850, 657
2015-10-27 17:18:48.250149, 657
2015-10-27 17:18:48.250240, 659
2015-10-27 17:18:48.250317, 660
2015-10-27 17:18:48.266155, 662
2015-10-27 17:18:48.266248, 663
2015-10-27 17:18:48.266324, 663
2015-10-27 17:18:48.282112, 662
2015-10-27 17:18:48.282203, 664
2015-10-27 17:18:48.282281, 665
2015-10-27 17:18:48.298102, 667
2015-10-27 17:18:48.298175, 670
2015-10-27 17:18:48.298216, 673
2015-10-27 17:18:48.314386, 675
2015-10-27 17:18:48.314540, 678
2015-10-27 17:18:48.314740, 681
2015-10-27 17:18:48.330462, 681
2015-10-27 17:18:48.330571, 685
2015-10-27 17:18:48.330649, 688
2015-10-27 17:18:48.346177, 690
2015-10-27 17:18:48.346335, 689
2015-10-27 17:18:48.346509, 687
2015-10-27 17:18:48.362284, 683
2015-10-27 17:18:48.362380, 679
2015-10-27 17:18:48.362448, 674
2015-10-27 17:18:48.378186, 671
2015-10-27 17:18:48.378282, 666
2015-10-27 17:18:48.378350, 663
2015-10-27 17:18:48.394426, 658
2015-10-27 17:18:48.394686, 653
2015-10-27 17:18:48.394770, 649
2015-10-27 17:18:48.410324, 645
2015-10-27 17:18:48.410422, 641
2015-10-27 17:18:48.410491, 636
2015-10-27 17:18:48.426080, 632
2015-10-27 17:18:48.426178, 628
2015-10-27 17:18:48.426240, 624
2015-10-27 17:18:48.442205, 622
2015-10-27 17:18:48.442320, 618
2015-10-27 17:18:48.442390, 615
2015-10-27 17:18:48.458301, 614
2015-10-27 17:18:48.458414, 614
2015-10-27 17:18:48.458484, 612
2015-10-27 17:18:48.458548, 611
2015-10-27 17:18:48.474269, 611
2015-10-27 17:18:48.474362, 610
2015-10-27 17:18:48.474461, 609
2015-10-27 17:18:48.490217, 609
2015-10-27 17:18:48.490378, 611
2015-10-27 17:18:48.490510, 612
2015-10-27 17:18:48.506139, 614
2015-10-27 17:18:48.506232, 616
2015-10-27 17:18:48.506313, 620
2015-10-27 17:18:48.522836, 622
2015-10-27 17:18:48.522967, 623
2015-10-27 17:18:48.523072, 625
2015-10-27 17:18:48.538317, 627
2015-10-27 17:18:48.538411, 630
2015-10-27 17:18:48.538480, 631
2015-10-27 17:18:48.554083, 630
2015-10-27 17:18:48.554176, 630
2015-10-27 17:18:48.554348, 631
2015-10-27 17:18:48.570080, 632
2015-10-27 17:18:48.570186, 633
2015-10-27 17:18:48.570254, 633
2015-10-27 17:18:48.586106, 633
2015-10-27 17:18:48.586199, 633
2015-10-27 17:18:48.586269, 633
2015-10-27 17:18:48.602315, 632
2015-10-27 17:18:48.602433, 631
2015-10-27 17:18:48.602503, 629
2015-10-27 17:18:48.618237, 629
2015-10-27 17:18:48.618334, 628
2015-10-27 17:18:48.618403, 627
2015-10-27 17:18:48.634057, 625
2015-10-27 17:18:48.634156, 624
2015-10-27 17:18:48.634224, 625
2015-10-27 17:18:48.650301, 625
2015-10-27 17:18:48.650404, 624
2015-10-27 17:18:48.650473, 622
2015-10-27 17:18:48.666197, 622
2015-10-27 17:18:48.666311, 620
2015-10-27 17:18:48.666380, 620
2015-10-27 17:18:48.682176, 619
2015-10-27 17:18:48.682288, 619
2015-10-27 17:18:48.682356, 619
2015-10-27 17:18:48.698027, 616
2015-10-27 17:18:48.698137, 615
2015-10-27 17:18:48.698208, 615
2015-10-27 17:18:48.698273, 614
2015-10-27 17:18:48.714185, 613
2015-10-27 17:18:48.714344, 612
2015-10-27 17:18:48.714461, 612
2015-10-27 17:18:48.730342, 612
2015-10-27 17:18:48.730436, 613
2015-10-27 17:18:48.730505, 614
2015-10-27 17:18:48.746177, 613
2015-10-27 17:18:48.746269, 612
2015-10-27 17:18:48.746337, 610
2015-10-27 17:18:48.762525, 610
2015-10-27 17:18:48.762681, 611
2015-10-27 17:18:48.762795, 610
2015-10-27 17:18:48.778143, 610
2015-10-27 17:18:48.778240, 610
2015-10-27 17:18:48.778309, 608
2015-10-27 17:18:48.794040, 607
2015-10-27 17:18:48.794181, 605
2015-10-27 17:18:48.794307, 606
2015-10-27 17:18:48.810199, 607
2015-10-27 17:18:48.810293, 606
2015-10-27 17:18:48.810361, 604
2015-10-27 17:18:48.826134, 602
2015-10-27 17:18:48.826229, 598
2015-10-27 17:18:48.826297, 596
2015-10-27 17:18:48.842178, 598
2015-10-27 17:18:48.842273, 604
2015-10-27 17:18:48.842341, 611
2015-10-27 17:18:48.858185, 618
2015-10-27 17:18:48.858282, 621
2015-10-27 17:18:48.858351, 617
2015-10-27 17:18:48.874149, 611
2015-10-27 17:18:48.874246, 609
2015-10-27 17:18:48.874315, 608
2015-10-27 17:18:48.889952, 605
2015-10-27 17:18:48.890049, 602
2015-10-27 17:18:48.890118, 599
2015-10-27 17:18:48.906250, 596
2015-10-27 17:18:48.906429, 596
2015-10-27 17:18:48.906551, 595
2015-10-27 17:18:48.921946, 594
2015-10-27 17:18:48.922081, 593
2015-10-27 17:18:48.922130, 592
2015-10-27 17:18:48.938156, 591
2015-10-27 17:18:48.938269, 590
2015-10-27 17:18:48.938338, 588
2015-10-27 17:18:48.938404, 586
2015-10-27 17:18:48.954026, 582
2015-10-27 17:18:48.954173, 587
2015-10-27 17:18:48.954300, 604
2015-10-27 17:18:48.970221, 640
2015-10-27 17:18:48.970314, 714
2015-10-27 17:18:48.970383, 806
2015-10-27 17:18:48.986168, 879
2015-10-27 17:18:48.986262, 905
2015-10-27 17:18:48.986330, 743
2015-10-27 17:18:49.002101, 543
2015-10-27 17:18:49.002202, 457
2015-10-27 17:18:49.002271, 476
2015-10-27 17:18:49.018290, 517
2015-10-27 17:18:49.018387, 544
2015-10-27 17:18:49.018456, 561
2015-10-27 17:18:49.034022, 565
2015-10-27 17:18:49.034114, 565
2015-10-27 17:18:49.034182, 569
2015-10-27 17:18:49.050031, 572
2015-10-27 17:18:49.050131, 573
2015-10-27 17:18:49.050199, 574
2015-10-27 17:18:49.066148, 577
2015-10-27 17:18:49.066242, 580
2015-10-27 17:18:49.066311, 580
2015-10-27 17:18:49.082026, 581
2015-10-27 17:18:49.082120, 582
2015-10-27 17:18:49.082188, 584
2015-10-27 17:18:49.098149, 584
2015-10-27 17:18:49.098245, 585
2015-10-27 17:18:49.098314, 586
2015-10-27 17:18:49.114206, 586
2015-10-27 17:18:49.114304, 586
2015-10-27 17:18:49.114372, 587
2015-10-27 17:18:49.129961, 588
2015-10-27 17:18:49.130058, 588
2015-10-27 17:18:49.130159, 589
2015-10-27 17:18:49.146151, 591
2015-10-27 17:18:49.146303, 593
2015-10-27 17:18:49.146373, 592
2015-10-27 17:18:49.161945, 596
2015-10-27 17:18:49.162112, 601
2015-10-27 17:18:49.162231, 604
2015-10-27 17:18:49.178064, 608
2015-10-27 17:18:49.178174, 612
2015-10-27 17:18:49.178244, 615
2015-10-27 17:18:49.178309, 617
2015-10-27 17:18:49.194272, 618
2015-10-27 17:18:49.194367, 618
2015-10-27 17:18:49.194435, 619
2015-10-27 17:18:49.209975, 616
2015-10-27 17:18:49.210083, 615
2015-10-27 17:18:49.210155, 610
2015-10-27 17:18:49.226050, 604
2015-10-27 17:18:49.226143, 598
2015-10-27 17:18:49.226211, 594
2015-10-27 17:18:49.242049, 590
2015-10-27 17:18:49.242144, 585
2015-10-27 17:18:49.242316, 581
2015-10-27 17:18:49.257957, 576
2015-10-27 17:18:49.258054, 570
2015-10-27 17:18:49.258123, 565
2015-10-27 17:18:49.273911, 561
2015-10-27 17:18:49.274021, 556
2015-10-27 17:18:49.274129, 552
2015-10-27 17:18:49.289907, 551
2015-10-27 17:18:49.290005, 548
2015-10-27 17:18:49.290098, 545
2015-10-27 17:18:49.306034, 543
2015-10-27 17:18:49.306189, 541
2015-10-27 17:18:49.306272, 538
2015-10-27 17:18:49.322210, 537
2015-10-27 17:18:49.322306, 536
2015-10-27 17:18:49.322374, 535
2015-10-27 17:18:49.337932, 536
2015-10-27 17:18:49.338079, 536
2015-10-27 17:18:49.338199, 536
2015-10-27 17:18:49.354098, 535
2015-10-27 17:18:49.354196, 534
2015-10-27 17:18:49.354265, 535
2015-10-27 17:18:49.370249, 536
2015-10-27 17:18:49.370402, 536
2015-10-27 17:18:49.370511, 537
2015-10-27 17:18:49.386079, 537
2015-10-27 17:18:49.386175, 537
2015-10-27 17:18:49.386243, 538
2015-10-27 17:18:49.401831, 538
2015-10-27 17:18:49.401943, 538
2015-10-27 17:18:49.402020, 539
2015-10-27 17:18:49.417839, 540
2015-10-27 17:18:49.417951, 541
2015-10-27 17:18:49.418022, 541
2015-10-27 17:18:49.433869, 542
2015-10-27 17:18:49.434030, 541
2015-10-27 17:18:49.434135, 541
2015-10-27 17:18:49.434242, 541
2015-10-27 17:18:49.449894, 540
2015-10-27 17:18:49.449985, 540
2015-10-27 17:18:49.450056, 541
2015-10-27 17:18:49.466097, 541
2015-10-27 17:18:49.466190, 541
2015-10-27 17:18:49.466258, 540
2015-10-27 17:18:49.482100, 539
2015-10-27 17:18:49.482193, 538
2015-10-27 17:18:49.482260, 537
2015-10-27 17:18:49.497968, 534
2015-10-27 17:18:49.498062, 533
2015-10-27 17:18:49.498137, 530
2015-10-27 17:18:49.514039, 529
2015-10-27 17:18:49.514138, 528
2015-10-27 17:18:49.514206, 528
2015-10-27 17:18:49.530045, 527
2015-10-27 17:18:49.530138, 526
2015-10-27 17:18:49.530205, 525
2015-10-27 17:18:49.546002, 524
2015-10-27 17:18:49.546097, 524
2015-10-27 17:18:49.546165, 523
2015-10-27 17:18:49.562135, 523
2015-10-27 17:18:49.562229, 523
2015-10-27 17:18:49.562298, 522
2015-10-27 17:18:49.577870, 522
2015-10-27 17:18:49.578030, 522
2015-10-27 17:18:49.578157, 521
2015-10-27 17:18:49.593817, 521
2015-10-27 17:18:49.593914, 521
2015-10-27 17:18:49.593982, 519
2015-10-27 17:18:49.610006, 518
2015-10-27 17:18:49.610103, 518
2015-10-27 17:18:49.610172, 518
2015-10-27 17:18:49.625858, 519
2015-10-27 17:18:49.625956, 520
2015-10-27 17:18:49.626024, 519
2015-10-27 17:18:49.641779, 518
2015-10-27 17:18:49.641894, 517
2015-10-27 17:18:49.641964, 517
2015-10-27 17:18:49.657792, 516
2015-10-27 17:18:49.657907, 515
2015-10-27 17:18:49.657977, 515
2015-10-27 17:18:49.673866, 514
2015-10-27 17:18:49.673978, 514
2015-10-27 17:18:49.674047, 514
2015-10-27 17:18:49.674111, 513
2015-10-27 17:18:49.689855, 509
2015-10-27 17:18:49.689948, 507
2015-10-27 17:18:49.690017, 508
2015-10-27 17:18:49.705909, 512
2015-10-27 17:18:49.706053, 517
2015-10-27 17:18:49.706158, 524
2015-10-27 17:18:49.721973, 530
2015-10-27 17:18:49.722066, 531
2015-10-27 17:18:49.722136, 527
2015-10-27 17:18:49.737759, 525
2015-10-27 17:18:49.737836, 525
2015-10-27 17:18:49.737893, 522
2015-10-27 17:18:49.753856, 520
2015-10-27 17:18:49.754013, 517
2015-10-27 17:18:49.754150, 513
2015-10-27 17:18:49.770068, 511
2015-10-27 17:18:49.770161, 509
2015-10-27 17:18:49.770230, 508
2015-10-27 17:18:49.785810, 508
2015-10-27 17:18:49.785905, 506
2015-10-27 17:18:49.785973, 504
2015-10-27 17:18:49.801834, 505
2015-10-27 17:18:49.801928, 505
2015-10-27 17:18:49.801997, 504
2015-10-27 17:18:49.817759, 503
2015-10-27 17:18:49.817827, 501
2015-10-27 17:18:49.817873, 508
2015-10-27 17:18:49.833866, 530
2015-10-27 17:18:49.833965, 577
2015-10-27 17:18:49.834033, 662
2015-10-27 17:18:49.849798, 754
2015-10-27 17:18:49.849897, 833
2015-10-27 17:18:49.850023, 831
2015-10-27 17:18:49.865958, 636
2015-10-27 17:18:49.866120, 431
2015-10-27 17:18:49.866254, 367
2015-10-27 17:18:49.881717, 402
2015-10-27 17:18:49.881828, 446
2015-10-27 17:18:49.881899, 473
2015-10-27 17:18:49.897735, 486
2015-10-27 17:18:49.897985, 487
2015-10-27 17:18:49.898071, 492
2015-10-27 17:18:49.913993, 497
2015-10-27 17:18:49.914174, 499
2015-10-27 17:18:49.914299, 501
2015-10-27 17:18:49.914374, 504
2015-10-27 17:18:49.929912, 505
2015-10-27 17:18:49.930004, 506
2015-10-27 17:18:49.930072, 508
2015-10-27 17:18:49.945824, 510
2015-10-27 17:18:49.945915, 512
2015-10-27 17:18:49.945984, 514
2015-10-27 17:18:49.961912, 515
2015-10-27 17:18:49.962064, 516
2015-10-27 17:18:49.962182, 517
2015-10-27 17:18:49.977914, 518
2015-10-27 17:18:49.978006, 519
2015-10-27 17:18:49.978073, 519
2015-10-27 17:18:49.993722, 520
2015-10-27 17:18:49.993904, 521
2015-10-27 17:18:49.993993, 523
2015-10-27 17:18:50.009771, 526
2015-10-27 17:18:50.009875, 529
2015-10-27 17:18:50.009950, 533
2015-10-27 17:18:50.025729, 536
2015-10-27 17:18:50.025802, 540
2015-10-27 17:18:50.025851, 544
2015-10-27 17:18:50.041718, 547
2015-10-27 17:18:50.041815, 549
2015-10-27 17:18:50.041883, 553
2015-10-27 17:18:50.057653, 556
2015-10-27 17:18:50.057748, 557
2015-10-27 17:18:50.057816, 558
2015-10-27 17:18:50.073883, 558
2015-10-27 17:18:50.074140, 556
2015-10-27 17:18:50.074291, 552
2015-10-27 17:18:50.089645, 547
2015-10-27 17:18:50.089934, 540
2015-10-27 17:18:50.090123, 536
2015-10-27 17:18:50.105707, 530
2015-10-27 17:18:50.105996, 526
2015-10-27 17:18:50.106151, 521
2015-10-27 17:18:50.121637, 518
2015-10-27 17:18:50.121824, 514
2015-10-27 17:18:50.122114, 509
2015-10-27 17:18:50.137628, 505
2015-10-27 17:18:50.137800, 501
2015-10-27 17:18:50.137937, 497
2015-10-27 17:18:50.153713, 493
2015-10-27 17:18:50.153906, 490
2015-10-27 17:18:50.153972, 488
2015-10-27 17:18:50.154022, 485
2015-10-27 17:18:50.169938, 482
2015-10-27 17:18:50.170031, 481
2015-10-27 17:18:50.170100, 479
2015-10-27 17:18:50.185672, 479
2015-10-27 17:18:50.185776, 480
2015-10-27 17:18:50.185844, 479
2015-10-27 17:18:50.201733, 478
2015-10-27 17:18:50.201829, 479
2015-10-27 17:18:50.201898, 480
2015-10-27 17:18:50.217744, 481
2015-10-27 17:18:50.217839, 482
2015-10-27 17:18:50.217907, 482
2015-10-27 17:18:50.233572, 483
2015-10-27 17:18:50.233641, 485
2015-10-27 17:18:50.233688, 487
2015-10-27 17:18:50.249556, 488
2015-10-27 17:18:50.249613, 490
2015-10-27 17:18:50.249652, 492
2015-10-27 17:18:50.265560, 493
2015-10-27 17:18:50.265615, 493
2015-10-27 17:18:50.265654, 493
2015-10-27 17:18:50.281802, 495
2015-10-27 17:18:50.281889, 496
2015-10-27 17:18:50.281954, 497
2015-10-27 17:18:50.297776, 497
2015-10-27 17:18:50.297872, 498
2015-10-27 17:18:50.297947, 499
2015-10-27 17:18:50.313545, 500
2015-10-27 17:18:50.313640, 500
2015-10-27 17:18:50.313715, 501
2015-10-27 17:18:50.329569, 501
2015-10-27 17:18:50.329670, 500
2015-10-27 17:18:50.329795, 499
2015-10-27 17:18:50.345756, 497
2015-10-27 17:18:50.345843, 496
2015-10-27 17:18:50.345906, 495
2015-10-27 17:18:50.361614, 495
2015-10-27 17:18:50.361779, 495
2015-10-27 17:18:50.361909, 493
2015-10-27 17:18:50.377692, 493
2015-10-27 17:18:50.377803, 493
2015-10-27 17:18:50.377872, 494
2015-10-27 17:18:50.393716, 492
2015-10-27 17:18:50.393827, 492
2015-10-27 17:18:50.393896, 493
2015-10-27 17:18:50.409549, 494
2015-10-27 17:18:50.409661, 493
2015-10-27 17:18:50.409731, 493
2015-10-27 17:18:50.409796, 493
2015-10-27 17:18:50.425741, 493
2015-10-27 17:18:50.425835, 493
2015-10-27 17:18:50.425903, 493
2015-10-27 17:18:50.441661, 493
2015-10-27 17:18:50.441802, 492
2015-10-27 17:18:50.442011, 491
2015-10-27 17:18:50.457579, 493
2015-10-27 17:18:50.457673, 495
2015-10-27 17:18:50.457741, 495
2015-10-27 17:18:50.473609, 496
2015-10-27 17:18:50.473714, 498
2015-10-27 17:18:50.473838, 498
2015-10-27 17:18:50.489605, 497
2015-10-27 17:18:50.490003, 497
2015-10-27 17:18:50.490203, 497
2015-10-27 17:18:50.505833, 497
2015-10-27 17:18:50.505992, 496
2015-10-27 17:18:50.506085, 495
2015-10-27 17:18:50.521644, 494
2015-10-27 17:18:50.521738, 494
2015-10-27 17:18:50.521806, 495
2015-10-27 17:18:50.537778, 495
2015-10-27 17:18:50.537876, 496
2015-10-27 17:18:50.537945, 497
2015-10-27 17:18:50.553728, 497
2015-10-27 17:18:50.553823, 496
2015-10-27 17:18:50.553892, 493
2015-10-27 17:18:50.569555, 490
2015-10-27 17:18:50.569653, 490
2015-10-27 17:18:50.569722, 492
2015-10-27 17:18:50.585785, 496
2015-10-27 17:18:50.585882, 504
2015-10-27 17:18:50.585950, 513
2015-10-27 17:18:50.601660, 517
2015-10-27 17:18:50.601758, 513
2015-10-27 17:18:50.601827, 510
2015-10-27 17:18:50.617566, 510
2015-10-27 17:18:50.617677, 509
2015-10-27 17:18:50.617748, 504
2015-10-27 17:18:50.633473, 500
2015-10-27 17:18:50.633791, 497
2015-10-27 17:18:50.633872, 495
2015-10-27 17:18:50.649569, 494
2015-10-27 17:18:50.649692, 493
2015-10-27 17:18:50.649781, 493
2015-10-27 17:18:50.649866, 492
2015-10-27 17:18:50.665784, 491
2015-10-27 17:18:50.665879, 491
2015-10-27 17:18:50.665948, 492
2015-10-27 17:18:50.681711, 492
2015-10-27 17:18:50.681931, 492
2015-10-27 17:18:50.682035, 493
2015-10-27 17:18:50.697454, 501
2015-10-27 17:18:50.697510, 524
2015-10-27 17:18:50.697549, 567
2015-10-27 17:18:50.713493, 642
2015-10-27 17:18:50.713549, 723
2015-10-27 17:18:50.713587, 796
2015-10-27 17:18:50.729466, 797
2015-10-27 17:18:50.729548, 616
2015-10-27 17:18:50.729600, 408
2015-10-27 17:18:50.745435, 343
2015-10-27 17:18:50.745527, 385
2015-10-27 17:18:50.745601, 429
2015-10-27 17:18:50.761442, 456
2015-10-27 17:18:50.761545, 472
2015-10-27 17:18:50.761592, 476
2015-10-27 17:18:50.777492, 481
2015-10-27 17:18:50.777635, 486
2015-10-27 17:18:50.777683, 489
2015-10-27 17:18:50.793480, 491
2015-10-27 17:18:50.793572, 493
2015-10-27 17:18:50.793644, 494
2015-10-27 17:18:50.809525, 496
2015-10-27 17:18:50.809641, 499
2015-10-27 17:18:50.809708, 501
2015-10-27 17:18:50.825629, 501
2015-10-27 17:18:50.825720, 504
2015-10-27 17:18:50.825792, 505
2015-10-27 17:18:50.841408, 506
2015-10-27 17:18:50.841507, 508
2015-10-27 17:18:50.841579, 510
2015-10-27 17:18:50.857375, 511
2015-10-27 17:18:50.857485, 513
2015-10-27 17:18:50.857560, 515
2015-10-27 17:18:50.873369, 517
2015-10-27 17:18:50.873474, 520
2015-10-27 17:18:50.873551, 523
2015-10-27 17:18:50.889374, 525
2015-10-27 17:18:50.889477, 528
2015-10-27 17:18:50.889546, 531
2015-10-27 17:18:50.889613, 534
2015-10-27 17:18:50.905434, 537
2015-10-27 17:18:50.905522, 541
2015-10-27 17:18:50.905645, 544
2015-10-27 17:18:50.922601, 547
2015-10-27 17:18:50.922690, 550
2015-10-27 17:18:50.922759, 554
2015-10-27 17:18:50.937444, 554
2015-10-27 17:18:50.937537, 552
2015-10-27 17:18:50.937605, 550
2015-10-27 17:18:50.953407, 546
2015-10-27 17:18:50.953464, 542
2015-10-27 17:18:50.953502, 537
2015-10-27 17:18:50.969442, 531
2015-10-27 17:18:50.969533, 526
2015-10-27 17:18:50.969605, 522
2015-10-27 17:18:50.985319, 518
2015-10-27 17:18:50.985376, 515
2015-10-27 17:18:50.985415, 511
2015-10-27 17:18:51.001352, 506
2015-10-27 17:18:51.001409, 501
2015-10-27 17:18:51.001447, 497
2015-10-27 17:18:51.017521, 494
2015-10-27 17:18:51.017614, 490
2015-10-27 17:18:51.017683, 487
2015-10-27 17:18:51.033691, 484
2015-10-27 17:18:51.033785, 482
2015-10-27 17:18:51.033854, 481
2015-10-27 17:18:51.049476, 479
2015-10-27 17:18:51.049556, 477
2015-10-27 17:18:51.049611, 474
2015-10-27 17:18:51.065705, 475
2015-10-27 17:18:51.065798, 477
2015-10-27 17:18:51.065867, 477
2015-10-27 17:18:51.081389, 476
2015-10-27 17:18:51.081476, 477
2015-10-27 17:18:51.081550, 479
2015-10-27 17:18:51.097376, 481
2015-10-27 17:18:51.097508, 483
2015-10-27 17:18:51.097587, 483
2015-10-27 17:18:51.113355, 484
2015-10-27 17:18:51.113504, 485
2015-10-27 17:18:51.113587, 486
2015-10-27 17:18:51.129480, 488
2015-10-27 17:18:51.129595, 489
2015-10-27 17:18:51.129677, 490
2015-10-27 17:18:51.129751, 492
2015-10-27 17:18:51.145387, 493
2015-10-27 17:18:51.145490, 495
2015-10-27 17:18:51.145562, 496
2015-10-27 17:18:51.161433, 495
2015-10-27 17:18:51.161530, 496
2015-10-27 17:18:51.161612, 497
2015-10-27 17:18:51.177395, 497
2015-10-27 17:18:51.177475, 496
2015-10-27 17:18:51.177538, 496
2015-10-27 17:18:51.193383, 494
2015-10-27 17:18:51.193483, 493
2015-10-27 17:18:51.193556, 492
2015-10-27 17:18:51.209464, 492
2015-10-27 17:18:51.209571, 492
2015-10-27 17:18:51.209702, 492
2015-10-27 17:18:51.225420, 491
2015-10-27 17:18:51.225476, 490
2015-10-27 17:18:51.225515, 489
2015-10-27 17:18:51.241375, 489
2015-10-27 17:18:51.241442, 490
2015-10-27 17:18:51.241481, 490
2015-10-27 17:18:51.257423, 489
2015-10-27 17:18:51.257521, 490
2015-10-27 17:18:51.257594, 490
2015-10-27 17:18:51.275713, 490
2015-10-27 17:18:51.275807, 490
2015-10-27 17:18:51.275872, 490
2015-10-27 17:18:51.289729, 490
2015-10-27 17:18:51.289845, 490
2015-10-27 17:18:51.289930, 489
2015-10-27 17:18:51.305303, 490
2015-10-27 17:18:51.305399, 490
2015-10-27 17:18:51.305468, 490
2015-10-27 17:18:51.321594, 490
2015-10-27 17:18:51.321698, 491
2015-10-27 17:18:51.321764, 492
2015-10-27 17:18:51.337361, 492
2015-10-27 17:18:51.337457, 493
2015-10-27 17:18:51.337533, 494
2015-10-27 17:18:51.353268, 494
2015-10-27 17:18:51.353335, 494
2015-10-27 17:18:51.353375, 493
2015-10-27 17:18:51.369281, 493
2015-10-27 17:18:51.369392, 494
2015-10-27 17:18:51.369465, 494
2015-10-27 17:18:51.385262, 495
2015-10-27 17:18:51.385373, 495
2015-10-27 17:18:51.385445, 496
2015-10-27 17:18:51.385519, 496
2015-10-27 17:18:51.401337, 495
2015-10-27 17:18:51.401434, 496
2015-10-27 17:18:51.401512, 497
2015-10-27 17:18:51.417312, 498
2015-10-27 17:18:51.417404, 498
2015-10-27 17:18:51.417475, 498
2015-10-27 17:18:51.433317, 499
2015-10-27 17:18:51.433415, 499
2015-10-27 17:18:51.433492, 498
2015-10-27 17:18:51.449266, 494
2015-10-27 17:18:51.449321, 493
2015-10-27 17:18:51.449369, 494
2015-10-27 17:18:51.465298, 499
2015-10-27 17:18:51.465353, 505
2015-10-27 17:18:51.465392, 514
2015-10-27 17:18:51.481276, 520
2015-10-27 17:18:51.481366, 520
2015-10-27 17:18:51.481438, 516
2015-10-27 17:18:51.497263, 515
2015-10-27 17:18:51.497329, 515
2015-10-27 17:18:51.497397, 513
2015-10-27 17:18:51.513303, 509
2015-10-27 17:18:51.513435, 506
2015-10-27 17:18:51.513520, 503
2015-10-27 17:18:51.529320, 502
2015-10-27 17:18:51.529632, 501
2015-10-27 17:18:51.529718, 501
2015-10-27 17:18:51.545267, 500
2015-10-27 17:18:51.545358, 499
2015-10-27 17:18:51.545429, 499
2015-10-27 17:18:51.561252, 500
2015-10-27 17:18:51.561348, 500
2015-10-27 17:18:51.561423, 501
2015-10-27 17:18:51.577302, 500
2015-10-27 17:18:51.577398, 503
2015-10-27 17:18:51.577469, 520
2015-10-27 17:18:51.593228, 551
2015-10-27 17:18:51.593331, 606
2015-10-27 17:18:51.593400, 686
2015-10-27 17:18:51.609401, 758
2015-10-27 17:18:51.609621, 818
2015-10-27 17:18:51.609699, 735
2015-10-27 17:18:51.625199, 519
2015-10-27 17:18:51.625269, 368
2015-10-27 17:18:51.625309, 363
2015-10-27 17:18:51.625354, 415
2015-10-27 17:18:51.641389, 451
2015-10-27 17:18:51.641515, 473
2015-10-27 17:18:51.641593, 483
2015-10-27 17:18:51.657267, 487
2015-10-27 17:18:51.657358, 494
2015-10-27 17:18:51.657429, 499
2015-10-27 17:18:51.673271, 500
2015-10-27 17:18:51.673364, 501
2015-10-27 17:18:51.673442, 503
2015-10-27 17:18:51.689221, 506
2015-10-27 17:18:51.689315, 508
2015-10-27 17:18:51.689394, 511
2015-10-27 17:18:51.705302, 514
2015-10-27 17:18:51.705422, 517
2015-10-27 17:18:51.705498, 519
2015-10-27 17:18:51.721194, 519
2015-10-27 17:18:51.721251, 520
2015-10-27 17:18:51.721290, 522
2015-10-27 17:18:51.737206, 524
2015-10-27 17:18:51.737298, 525
2015-10-27 17:18:51.737339, 526
2015-10-27 17:18:51.753253, 527
2015-10-27 17:18:51.753309, 529
2015-10-27 17:18:51.753348, 530
2015-10-27 17:18:51.769229, 532
2015-10-27 17:18:51.769319, 534
2015-10-27 17:18:51.769362, 538
2015-10-27 17:18:51.785223, 542
2015-10-27 17:18:51.785279, 545
2015-10-27 17:18:51.785317, 548
2015-10-27 17:18:51.801235, 552
2015-10-27 17:18:51.801293, 556
2015-10-27 17:18:51.801332, 558
2015-10-27 17:18:51.817269, 561
2015-10-27 17:18:51.817341, 562
2015-10-27 17:18:51.817391, 562
2015-10-27 17:18:51.833402, 559
2015-10-27 17:18:51.833513, 556
2015-10-27 17:18:51.833583, 553
2015-10-27 17:18:51.849458, 548
2015-10-27 17:18:51.849570, 542
2015-10-27 17:18:51.849640, 536
2015-10-27 17:18:51.865366, 531
2015-10-27 17:18:51.865477, 528
2015-10-27 17:18:51.865546, 525
2015-10-27 17:18:51.865612, 520
2015-10-27 17:18:51.881277, 518
2015-10-27 17:18:51.881369, 516
2015-10-27 17:18:51.881438, 512
2015-10-27 17:18:51.897444, 508
2015-10-27 17:18:51.897537, 506
2015-10-27 17:18:51.897606, 503
2015-10-27 17:18:51.913253, 500
2015-10-27 17:18:51.913345, 496
2015-10-27 17:18:51.913413, 493
2015-10-27 17:18:51.929563, 490
2015-10-27 17:18:51.929706, 489
2015-10-27 17:18:51.929830, 487
2015-10-27 17:18:51.945387, 487
2015-10-27 17:18:51.945480, 487
2015-10-27 17:18:51.945548, 487
2015-10-27 17:18:51.961392, 489
2015-10-27 17:18:51.961484, 490
2015-10-27 17:18:51.961572, 494
2015-10-27 17:18:51.977412, 496
2015-10-27 17:18:51.977507, 498
2015-10-27 17:18:51.977576, 500
2015-10-27 17:18:51.993233, 502
2015-10-27 17:18:51.993394, 504
2015-10-27 17:18:51.993496, 505
2015-10-27 17:18:52.009211, 507
2015-10-27 17:18:52.009335, 510
2015-10-27 17:18:52.009439, 511
2015-10-27 17:18:52.025267, 512
2015-10-27 17:18:52.025501, 514
2015-10-27 17:18:52.025631, 515
2015-10-27 17:18:52.041215, 516
2015-10-27 17:18:52.041376, 516
2015-10-27 17:18:52.041500, 515
2015-10-27 17:18:52.057143, 515
2015-10-27 17:18:52.057215, 514
2015-10-27 17:18:52.057265, 514
2015-10-27 17:18:52.073138, 513
2015-10-27 17:18:52.073291, 513
2015-10-27 17:18:52.073410, 512
2015-10-27 17:18:52.089297, 512
2015-10-27 17:18:52.089475, 512
2015-10-27 17:18:52.089604, 511
2015-10-27 17:18:52.105134, 511
2015-10-27 17:18:52.105247, 510
2015-10-27 17:18:52.105316, 509
2015-10-27 17:18:52.105381, 509
2015-10-27 17:18:52.121431, 508
2015-10-27 17:18:52.121627, 508
2015-10-27 17:18:52.121718, 507
2015-10-27 17:18:52.137173, 507
2015-10-27 17:18:52.137266, 506
2015-10-27 17:18:52.137333, 506
2015-10-27 17:18:52.153363, 506
2015-10-27 17:18:52.153456, 507
2015-10-27 17:18:52.153525, 508
2015-10-27 17:18:52.169332, 507
2015-10-27 17:18:52.169563, 507
2015-10-27 17:18:52.169667, 506
2015-10-27 17:18:52.185316, 507
2015-10-27 17:18:52.185409, 507
2015-10-27 17:18:52.185478, 507
2015-10-27 17:18:52.201210, 507
2015-10-27 17:18:52.201356, 508
2015-10-27 17:18:52.201475, 509
2015-10-27 17:18:52.217250, 510
2015-10-27 17:18:52.217345, 511
2015-10-27 17:18:52.217413, 510
2015-10-27 17:18:52.233319, 510
2015-10-27 17:18:52.233416, 511
2015-10-27 17:18:52.233485, 512
2015-10-27 17:18:52.249442, 512
2015-10-27 17:18:52.249589, 511
2015-10-27 17:18:52.249688, 512
2015-10-27 17:18:52.265212, 513
2015-10-27 17:18:52.265310, 513
2015-10-27 17:18:52.265378, 512
2015-10-27 17:18:52.281481, 513
2015-10-27 17:18:52.281636, 513
2015-10-27 17:18:52.281820, 514
2015-10-27 17:18:52.297163, 515
2015-10-27 17:18:52.297340, 514
2015-10-27 17:18:52.297455, 515
2015-10-27 17:18:52.313194, 514
2015-10-27 17:18:52.313397, 512
2015-10-27 17:18:52.313570, 508
2015-10-27 17:18:52.329279, 507
2015-10-27 17:18:52.329392, 509
2015-10-27 17:18:52.329462, 513
2015-10-27 17:18:52.345081, 519
2015-10-27 17:18:52.345238, 527
2015-10-27 17:18:52.345305, 534
2015-10-27 17:18:52.345360, 535
2015-10-27 17:18:52.361314, 531
2015-10-27 17:18:52.361463, 530
2015-10-27 17:18:52.361623, 529
2015-10-27 17:18:52.377477, 526
2015-10-27 17:18:52.377628, 522
2015-10-27 17:18:52.377753, 518
2015-10-27 17:18:52.393324, 516
2015-10-27 17:18:52.393504, 516
2015-10-27 17:18:52.393657, 513
2015-10-27 17:18:52.409323, 512
2015-10-27 17:18:52.409464, 512
2015-10-27 17:18:52.409560, 511
2015-10-27 17:18:52.425251, 511
2015-10-27 17:18:52.425487, 511
2015-10-27 17:18:52.425570, 511
2015-10-27 17:18:52.441151, 511
2015-10-27 17:18:52.441356, 512
2015-10-27 17:18:52.441443, 519
2015-10-27 17:18:52.457252, 538
2015-10-27 17:18:52.457490, 573
2015-10-27 17:18:52.457636, 632
2015-10-27 17:18:52.473211, 711
2015-10-27 17:18:52.473439, 779
