timestamp, value
datetime, int
T,
2015-10-27 17:12:45.719955, 538
2015-10-27 17:12:47.207032, 540
2015-10-27 17:12:47.207156, 541
2015-10-27 17:12:47.207213, 542
2015-10-27 17:12:47.223088, 543
2015-10-27 17:12:47.223199, 544
2015-10-27 17:12:47.223266, 546
2015-10-27 17:12:47.238958, 548
2015-10-27 17:12:47.239069, 549
2015-10-27 17:12:47.239137, 551
2015-10-27 17:12:47.254958, 553
2015-10-27 17:12:47.255024, 554
2015-10-27 17:12:47.255062, 555
2015-10-27 17:12:47.255098, 556
2015-10-27 17:12:47.270968, 556
2015-10-27 17:12:47.271022, 558
2015-10-27 17:12:47.271060, 558
2015-10-27 17:12:47.286939, 560
2015-10-27 17:12:47.286992, 562
2015-10-27 17:12:47.287029, 569
2015-10-27 17:12:47.303171, 575
2015-10-27 17:12:47.303262, 581
2015-10-27 17:12:47.303328, 587
2015-10-27 17:12:47.319111, 595
2015-10-27 17:12:47.319202, 603
2015-10-27 17:12:47.319269, 611
2015-10-27 17:12:47.334998, 621
2015-10-27 17:12:47.335088, 632
2015-10-27 17:12:47.335153, 641
2015-10-27 17:12:47.351000, 649
2015-10-27 17:12:47.351074, 656
2015-10-27 17:12:47.351127, 661
2015-10-27 17:12:47.367577, 663
2015-10-27 17:12:47.367734, 664
2015-10-27 17:12:47.368104, 663
2015-10-27 17:12:47.383236, 660
2015-10-27 17:12:47.383329, 658
2015-10-27 17:12:47.383395, 656
2015-10-27 17:12:47.399261, 647
2015-10-27 17:12:47.399365, 633
2015-10-27 17:12:47.399454, 615
2015-10-27 17:12:47.415017, 593
2015-10-27 17:12:47.415292, 571
2015-10-27 17:12:47.415430, 549
2015-10-27 17:12:47.431299, 530
2015-10-27 17:12:47.431462, 514
2015-10-27 17:12:47.431562, 500
2015-10-27 17:12:47.446949, 487
2015-10-27 17:12:47.447017, 477
2015-10-27 17:12:47.447063, 468
2015-10-27 17:12:47.462927, 462
2015-10-27 17:12:47.462984, 457
2015-10-27 17:12:47.463021, 454
2015-10-27 17:12:47.478917, 454
2015-10-27 17:12:47.478994, 456
2015-10-27 17:12:47.479040, 455
2015-10-27 17:12:47.494919, 452
2015-10-27 17:12:47.495027, 451
2015-10-27 17:12:47.495094, 454
2015-10-27 17:12:47.511076, 456
2015-10-27 17:12:47.511185, 456
2015-10-27 17:12:47.511252, 455
2015-10-27 17:12:47.511315, 455
2015-10-27 17:12:47.527296, 455
2015-10-27 17:12:47.527391, 455
2015-10-27 17:12:47.527457, 455
2015-10-27 17:12:47.543177, 455
2015-10-27 17:12:47.543267, 456
2015-10-27 17:12:47.543333, 458
2015-10-27 17:12:47.559211, 460
2015-10-27 17:12:47.559302, 462
2015-10-27 17:12:47.559367, 463
2015-10-27 17:12:47.575058, 466
2015-10-27 17:12:47.575151, 466
2015-10-27 17:12:47.575218, 466
2015-10-27 17:12:47.591091, 464
2015-10-27 17:12:47.591182, 464
2015-10-27 17:12:47.591248, 464
2015-10-27 17:12:47.606986, 463
2015-10-27 17:12:47.607080, 463
2015-10-27 17:12:47.607145, 462
2015-10-27 17:12:47.623111, 460
2015-10-27 17:12:47.623230, 460
2015-10-27 17:12:47.623296, 461
2015-10-27 17:12:47.639022, 461
2015-10-27 17:12:47.639114, 460
2015-10-27 17:12:47.639179, 459
2015-10-27 17:12:47.655135, 459
2015-10-27 17:12:47.655258, 459
2015-10-27 17:12:47.655323, 461
2015-10-27 17:12:47.670868, 462
2015-10-27 17:12:47.670962, 463
2015-10-27 17:12:47.671028, 462
2015-10-27 17:12:47.687029, 460
2015-10-27 17:12:47.687122, 460
2015-10-27 17:12:47.687188, 461
2015-10-27 17:12:47.703027, 463
2015-10-27 17:12:47.703120, 465
2015-10-27 17:12:47.703186, 466
2015-10-27 17:12:47.718894, 467
2015-10-27 17:12:47.719003, 466
2015-10-27 17:12:47.719070, 467
2015-10-27 17:12:47.734826, 469
2015-10-27 17:12:47.734936, 470
2015-10-27 17:12:47.735015, 470
2015-10-27 17:12:47.750932, 471
2015-10-27 17:12:47.751044, 473
2015-10-27 17:12:47.751110, 476
2015-10-27 17:12:47.751172, 476
2015-10-27 17:12:47.767238, 475
2015-10-27 17:12:47.767399, 476
2015-10-27 17:12:47.767520, 477
2015-10-27 17:12:47.783121, 478
2015-10-27 17:12:47.783212, 479
2015-10-27 17:12:47.783296, 479
2015-10-27 17:12:47.798884, 479
2015-10-27 17:12:47.798975, 479
2015-10-27 17:12:47.799041, 480
2015-10-27 17:12:47.815179, 481
2015-10-27 17:12:47.815269, 482
2015-10-27 17:12:47.815335, 487
2015-10-27 17:12:47.831100, 490
2015-10-27 17:12:47.831191, 491
2015-10-27 17:12:47.831256, 491
2015-10-27 17:12:47.847010, 491
2015-10-27 17:12:47.847102, 500
2015-10-27 17:12:47.847195, 513
2015-10-27 17:12:47.863026, 522
2015-10-27 17:12:47.863120, 520
2015-10-27 17:12:47.863187, 514
2015-10-27 17:12:47.879108, 509
2015-10-27 17:12:47.879232, 506
2015-10-27 17:12:47.879298, 505
2015-10-27 17:12:47.895007, 502
2015-10-27 17:12:47.895099, 500
2015-10-27 17:12:47.895164, 496
2015-10-27 17:12:47.911007, 490
2015-10-27 17:12:47.911103, 486
2015-10-27 17:12:47.911168, 486
2015-10-27 17:12:47.926773, 487
2015-10-27 17:12:47.926867, 487
2015-10-27 17:12:47.926933, 489
2015-10-27 17:12:47.943029, 492
2015-10-27 17:12:47.943160, 491
2015-10-27 17:12:47.943227, 491
2015-10-27 17:12:47.959000, 490
2015-10-27 17:12:47.959163, 493
2015-10-27 17:12:47.959230, 494
2015-10-27 17:12:47.974826, 495
2015-10-27 17:12:47.974908, 508
2015-10-27 17:12:47.974957, 553
2015-10-27 17:12:47.990962, 673
2015-10-27 17:12:47.991103, 825
2015-10-27 17:12:47.991169, 928
2015-10-27 17:12:47.991232, 976
2015-10-27 17:12:48.006854, 955
2015-10-27 17:12:48.006933, 824
2015-10-27 17:12:48.006987, 542
2015-10-27 17:12:48.022832, 244
2015-10-27 17:12:48.022924, 161
2015-10-27 17:12:48.022990, 204
2015-10-27 17:12:48.038785, 266
2015-10-27 17:12:48.038849, 314
2015-10-27 17:12:48.038894, 365
2015-10-27 17:12:48.054713, 421
2015-10-27 17:12:48.054769, 463
2015-10-27 17:12:48.054807, 482
2015-10-27 17:12:48.070791, 490
2015-10-27 17:12:48.070883, 493
2015-10-27 17:12:48.070950, 501
2015-10-27 17:12:48.086736, 509
2015-10-27 17:12:48.086811, 514
2015-10-27 17:12:48.086865, 518
2015-10-27 17:12:48.102879, 521
2015-10-27 17:12:48.102973, 523
2015-10-27 17:12:48.103038, 526
2015-10-27 17:12:48.118750, 528
2015-10-27 17:12:48.118839, 532
2015-10-27 17:12:48.118906, 535
2015-10-27 17:12:48.134922, 538
2015-10-27 17:12:48.135038, 543
2015-10-27 17:12:48.135105, 549
2015-10-27 17:12:48.150777, 555
2015-10-27 17:12:48.150934, 563
2015-10-27 17:12:48.151064, 567
2015-10-27 17:12:48.166990, 572
2015-10-27 17:12:48.167085, 578
2015-10-27 17:12:48.167151, 586
2015-10-27 17:12:48.182852, 595
2015-10-27 17:12:48.182958, 603
2015-10-27 17:12:48.183025, 610
2015-10-27 17:12:48.198798, 618
2015-10-27 17:12:48.198910, 626
2015-10-27 17:12:48.198977, 635
2015-10-27 17:12:48.214901, 644
2015-10-27 17:12:48.215062, 651
2015-10-27 17:12:48.215130, 656
2015-10-27 17:12:48.230643, 661
2015-10-27 17:12:48.230756, 663
2015-10-27 17:12:48.230818, 664
2015-10-27 17:12:48.230857, 663
2015-10-27 17:12:48.246900, 661
2015-10-27 17:12:48.246990, 657
2015-10-27 17:12:48.247076, 650
2015-10-27 17:12:48.262949, 639
2015-10-27 17:12:48.263044, 623
2015-10-27 17:12:48.263109, 604
2015-10-27 17:12:48.278854, 584
2015-10-27 17:12:48.278948, 564
2015-10-27 17:12:48.279014, 545
2015-10-27 17:12:48.294978, 525
2015-10-27 17:12:48.295068, 507
2015-10-27 17:12:48.295134, 492
2015-10-27 17:12:48.310833, 479
2015-10-27 17:12:48.310926, 469
2015-10-27 17:12:48.310991, 464
2015-10-27 17:12:48.326980, 460
2015-10-27 17:12:48.327071, 457
2015-10-27 17:12:48.327138, 457
2015-10-27 17:12:48.343156, 456
2015-10-27 17:12:48.343246, 455
2015-10-27 17:12:48.343311, 455
2015-10-27 17:12:48.358896, 454
2015-10-27 17:12:48.358986, 455
2015-10-27 17:12:48.359053, 455
2015-10-27 17:12:48.374872, 457
2015-10-27 17:12:48.374964, 459
2015-10-27 17:12:48.375031, 458
2015-10-27 17:12:48.390732, 460
2015-10-27 17:12:48.390828, 464
2015-10-27 17:12:48.390893, 467
2015-10-27 17:12:48.406829, 468
2015-10-27 17:12:48.406925, 468
2015-10-27 17:12:48.406991, 466
2015-10-27 17:12:48.422783, 466
2015-10-27 17:12:48.422881, 466
2015-10-27 17:12:48.422947, 466
2015-10-27 17:12:48.438770, 466
2015-10-27 17:12:48.438866, 467
2015-10-27 17:12:48.438933, 466
2015-10-27 17:12:48.454782, 466
2015-10-27 17:12:48.454989, 465
2015-10-27 17:12:48.455066, 464
2015-10-27 17:12:48.470743, 464
2015-10-27 17:12:48.470850, 465
2015-10-27 17:12:48.470917, 465
2015-10-27 17:12:48.486732, 464
2015-10-27 17:12:48.486841, 464
2015-10-27 17:12:48.486907, 463
2015-10-27 17:12:48.486970, 463
2015-10-27 17:12:48.502831, 462
2015-10-27 17:12:48.502921, 462
2015-10-27 17:12:48.502986, 463
2015-10-27 17:12:48.518668, 466
2015-10-27 17:12:48.518784, 466
2015-10-27 17:12:48.518895, 468
2015-10-27 17:12:48.534717, 470
2015-10-27 17:12:48.534809, 468
2015-10-27 17:12:48.534875, 469
2015-10-27 17:12:48.550661, 470
2015-10-27 17:12:48.550815, 471
2015-10-27 17:12:48.550957, 472
2015-10-27 17:12:48.566757, 473
2015-10-27 17:12:48.566847, 472
2015-10-27 17:12:48.566913, 470
2015-10-27 17:12:48.582650, 469
2015-10-27 17:12:48.582778, 472
2015-10-27 17:12:48.582847, 473
2015-10-27 17:12:48.598807, 473
2015-10-27 17:12:48.598900, 472
2015-10-27 17:12:48.598966, 475
2015-10-27 17:12:48.614551, 476
2015-10-27 17:12:48.614717, 475
2015-10-27 17:12:48.614800, 474
2015-10-27 17:12:48.630778, 474
2015-10-27 17:12:48.630870, 478
2015-10-27 17:12:48.630936, 479
2015-10-27 17:12:48.646542, 480
2015-10-27 17:12:48.646756, 482
2015-10-27 17:12:48.646855, 482
2015-10-27 17:12:48.662725, 482
2015-10-27 17:12:48.662860, 484
2015-10-27 17:12:48.662927, 487
2015-10-27 17:12:48.678593, 486
2015-10-27 17:12:48.678692, 486
2015-10-27 17:12:48.678759, 488
2015-10-27 17:12:48.694629, 487
2015-10-27 17:12:48.694741, 487
2015-10-27 17:12:48.694809, 494
2015-10-27 17:12:48.710669, 505
2015-10-27 17:12:48.710817, 515
2015-10-27 17:12:48.710884, 514
2015-10-27 17:12:48.726588, 509
2015-10-27 17:12:48.726700, 505
2015-10-27 17:12:48.726768, 502
2015-10-27 17:12:48.726832, 501
2015-10-27 17:12:48.742715, 499
2015-10-27 17:12:48.742808, 498
2015-10-27 17:12:48.742874, 494
2015-10-27 17:12:48.758822, 487
2015-10-27 17:12:48.758916, 480
2015-10-27 17:12:48.758984, 478
2015-10-27 17:12:48.774643, 478
2015-10-27 17:12:48.774732, 479
2015-10-27 17:12:48.774798, 482
2015-10-27 17:12:48.790695, 484
2015-10-27 17:12:48.790810, 486
2015-10-27 17:12:48.790876, 486
2015-10-27 17:12:48.806602, 487
2015-10-27 17:12:48.806693, 486
2015-10-27 17:12:48.806759, 487
2015-10-27 17:12:48.822623, 489
2015-10-27 17:12:48.822715, 504
2015-10-27 17:12:48.822781, 562
2015-10-27 17:12:48.838644, 702
2015-10-27 17:12:48.838736, 855
2015-10-27 17:12:48.838802, 954
2015-10-27 17:12:48.854655, 991
2015-10-27 17:12:48.854752, 983
2015-10-27 17:12:48.854844, 868
2015-10-27 17:12:48.870622, 565
2015-10-27 17:12:48.870713, 257
2015-10-27 17:12:48.870779, 184
2015-10-27 17:12:48.886636, 231
2015-10-27 17:12:48.886730, 288
2015-10-27 17:12:48.886795, 327
2015-10-27 17:12:48.902437, 368
2015-10-27 17:12:48.902541, 416
2015-10-27 17:12:48.902607, 455
2015-10-27 17:12:48.918508, 477
2015-10-27 17:12:48.918602, 488
2015-10-27 17:12:48.918679, 496
2015-10-27 17:12:48.934501, 502
2015-10-27 17:12:48.934737, 504
2015-10-27 17:12:48.934833, 510
2015-10-27 17:12:48.950476, 515
2015-10-27 17:12:48.950586, 518
2015-10-27 17:12:48.950653, 523
2015-10-27 17:12:48.966618, 527
2015-10-27 17:12:48.966781, 527
2015-10-27 17:12:48.966849, 529
2015-10-27 17:12:48.966912, 532
2015-10-27 17:12:48.982772, 536
2015-10-27 17:12:48.982862, 541
2015-10-27 17:12:48.982927, 546
2015-10-27 17:12:48.998607, 551
2015-10-27 17:12:48.998697, 555
2015-10-27 17:12:48.998762, 560
2015-10-27 17:12:49.014726, 568
2015-10-27 17:12:49.014818, 577
2015-10-27 17:12:49.014884, 583
2015-10-27 17:12:49.030560, 590
2015-10-27 17:12:49.030652, 597
2015-10-27 17:12:49.030718, 605
2015-10-27 17:12:49.046569, 616
2015-10-27 17:12:49.046661, 627
2015-10-27 17:12:49.046727, 635
2015-10-27 17:12:49.062624, 644
2015-10-27 17:12:49.062740, 650
2015-10-27 17:12:49.062806, 656
2015-10-27 17:12:49.078599, 663
2015-10-27 17:12:49.078690, 666
2015-10-27 17:12:49.078816, 665
2015-10-27 17:12:49.094688, 663
2015-10-27 17:12:49.094812, 658
2015-10-27 17:12:49.094877, 652
2015-10-27 17:12:49.110640, 643
2015-10-27 17:12:49.110780, 630
2015-10-27 17:12:49.110850, 615
2015-10-27 17:12:49.126660, 594
2015-10-27 17:12:49.126795, 569
2015-10-27 17:12:49.126863, 545
2015-10-27 17:12:49.142604, 525
2015-10-27 17:12:49.142729, 508
2015-10-27 17:12:49.142795, 492
2015-10-27 17:12:49.158522, 480
2015-10-27 17:12:49.158616, 468
2015-10-27 17:12:49.158681, 460
2015-10-27 17:12:49.174545, 455
2015-10-27 17:12:49.174692, 452
2015-10-27 17:12:49.174759, 449
2015-10-27 17:12:49.190574, 448
2015-10-27 17:12:49.190735, 447
2015-10-27 17:12:49.190803, 447
2015-10-27 17:12:49.206604, 449
2015-10-27 17:12:49.206716, 450
2015-10-27 17:12:49.206784, 450
2015-10-27 17:12:49.206847, 450
2015-10-27 17:12:49.222694, 452
2015-10-27 17:12:49.222784, 454
2015-10-27 17:12:49.222850, 455
2015-10-27 17:12:49.238506, 455
2015-10-27 17:12:49.238621, 454
2015-10-27 17:12:49.238686, 455
2015-10-27 17:12:49.254613, 459
2015-10-27 17:12:49.254703, 462
2015-10-27 17:12:49.254769, 464
2015-10-27 17:12:49.270605, 464
2015-10-27 17:12:49.270698, 462
2015-10-27 17:12:49.270764, 462
2015-10-27 17:12:49.286596, 463
2015-10-27 17:12:49.286689, 463
2015-10-27 17:12:49.286756, 463
2015-10-27 17:12:49.302706, 461
2015-10-27 17:12:49.302797, 462
2015-10-27 17:12:49.302883, 463
2015-10-27 17:12:49.318416, 460
2015-10-27 17:12:49.318507, 460
2015-10-27 17:12:49.318573, 458
2015-10-27 17:12:49.334511, 457
2015-10-27 17:12:49.334606, 458
2015-10-27 17:12:49.334673, 455
2015-10-27 17:12:49.350677, 455
2015-10-27 17:12:49.350767, 456
2015-10-27 17:12:49.350833, 457
2015-10-27 17:12:49.366394, 458
2015-10-27 17:12:49.366484, 460
2015-10-27 17:12:49.366551, 462
2015-10-27 17:12:49.382601, 463
2015-10-27 17:12:49.382722, 463
2015-10-27 17:12:49.382788, 463
2015-10-27 17:12:49.398605, 462
2015-10-27 17:12:49.398731, 464
2015-10-27 17:12:49.398797, 465
2015-10-27 17:12:49.414548, 466
2015-10-27 17:12:49.414642, 469
2015-10-27 17:12:49.414707, 469
2015-10-27 17:12:49.430687, 469
2015-10-27 17:12:49.430826, 469
2015-10-27 17:12:49.430893, 468
2015-10-27 17:12:49.446478, 468
2015-10-27 17:12:49.446632, 471
2015-10-27 17:12:49.446699, 473
2015-10-27 17:12:49.462482, 473
2015-10-27 17:12:49.462595, 473
2015-10-27 17:12:49.462662, 474
2015-10-27 17:12:49.462725, 475
2015-10-27 17:12:49.478640, 477
2015-10-27 17:12:49.478730, 479
2015-10-27 17:12:49.478796, 477
2015-10-27 17:12:49.494599, 478
2015-10-27 17:12:49.494689, 482
2015-10-27 17:12:49.494755, 484
2015-10-27 17:12:49.510597, 484
2015-10-27 17:12:49.510700, 483
2015-10-27 17:12:49.510766, 482
2015-10-27 17:12:49.526627, 483
2015-10-27 17:12:49.526744, 482
2015-10-27 17:12:49.526809, 483
2015-10-27 17:12:49.542481, 492
2015-10-27 17:12:49.542572, 502
2015-10-27 17:12:49.542639, 509
2015-10-27 17:12:49.558617, 509
2015-10-27 17:12:49.558733, 504
2015-10-27 17:12:49.558799, 501
2015-10-27 17:12:49.574542, 500
2015-10-27 17:12:49.574660, 499
2015-10-27 17:12:49.574752, 495
2015-10-27 17:12:49.590537, 493
2015-10-27 17:12:49.590661, 490
2015-10-27 17:12:49.590727, 486
2015-10-27 17:12:49.606594, 482
2015-10-27 17:12:49.606719, 481
2015-10-27 17:12:49.606785, 478
2015-10-27 17:12:49.622426, 478
2015-10-27 17:12:49.622533, 480
2015-10-27 17:12:49.622600, 480
2015-10-27 17:12:49.638549, 481
2015-10-27 17:12:49.638681, 482
2015-10-27 17:12:49.638746, 483
2015-10-27 17:12:49.654459, 482
2015-10-27 17:12:49.654553, 481
2015-10-27 17:12:49.654619, 484
2015-10-27 17:12:49.670440, 512
2015-10-27 17:12:49.670548, 597
2015-10-27 17:12:49.670614, 751
2015-10-27 17:12:49.686465, 878
2015-10-27 17:12:49.686629, 965
2015-10-27 17:12:49.686696, 993
2015-10-27 17:12:49.702392, 985
2015-10-27 17:12:49.702523, 832
2015-10-27 17:12:49.702591, 487
2015-10-27 17:12:49.702704, 229
2015-10-27 17:12:49.718583, 195
2015-10-27 17:12:49.718674, 254
2015-10-27 17:12:49.718739, 312
2015-10-27 17:12:49.734337, 351
2015-10-27 17:12:49.734427, 393
2015-10-27 17:12:49.734493, 433
2015-10-27 17:12:49.750382, 461
2015-10-27 17:12:49.750502, 476
2015-10-27 17:12:49.750569, 483
2015-10-27 17:12:49.766640, 487
2015-10-27 17:12:49.766732, 491
2015-10-27 17:12:49.766817, 494
2015-10-27 17:12:49.782423, 498
2015-10-27 17:12:49.782514, 500
2015-10-27 17:12:49.782580, 503
2015-10-27 17:12:49.798529, 508
2015-10-27 17:12:49.798620, 514
2015-10-27 17:12:49.798686, 519
2015-10-27 17:12:49.814444, 522
2015-10-27 17:12:49.814561, 525
2015-10-27 17:12:49.814628, 530
2015-10-27 17:12:49.830443, 535
2015-10-27 17:12:49.830538, 538
2015-10-27 17:12:49.830604, 543
2015-10-27 17:12:49.846582, 549
2015-10-27 17:12:49.846678, 554
2015-10-27 17:12:49.846745, 558
2015-10-27 17:12:49.862452, 564
2015-10-27 17:12:49.862576, 573
2015-10-27 17:12:49.862642, 582
2015-10-27 17:12:49.878210, 591
2015-10-27 17:12:49.878304, 601
2015-10-27 17:12:49.878371, 611
2015-10-27 17:12:49.894460, 621
2015-10-27 17:12:49.894582, 632
2015-10-27 17:12:49.894648, 643
2015-10-27 17:12:49.910412, 652
2015-10-27 17:12:49.910553, 657
2015-10-27 17:12:49.910620, 662
2015-10-27 17:12:49.926366, 662
2015-10-27 17:12:49.926476, 661
2015-10-27 17:12:49.926542, 660
2015-10-27 17:12:49.942408, 656
2015-10-27 17:12:49.942561, 650
2015-10-27 17:12:49.942629, 640
2015-10-27 17:12:49.942696, 625
2015-10-27 17:12:49.958246, 605
2015-10-27 17:12:49.958391, 579
2015-10-27 17:12:49.958456, 555
2015-10-27 17:12:49.974382, 535
2015-10-27 17:12:49.974477, 518
2015-10-27 17:12:49.974548, 503
2015-10-27 17:12:49.990326, 488
2015-10-27 17:12:49.990417, 472
2015-10-27 17:12:49.990482, 459
2015-10-27 17:12:50.006293, 452
2015-10-27 17:12:50.006386, 449
2015-10-27 17:12:50.006453, 448
2015-10-27 17:12:50.022463, 446
2015-10-27 17:12:50.022555, 446
2015-10-27 17:12:50.022620, 445
2015-10-27 17:12:50.038221, 448
2015-10-27 17:12:50.038337, 448
2015-10-27 17:12:50.038404, 445
2015-10-27 17:12:50.054370, 446
2015-10-27 17:12:50.054461, 446
2015-10-27 17:12:50.054527, 449
2015-10-27 17:12:50.070156, 450
2015-10-27 17:12:50.070270, 452
2015-10-27 17:12:50.070338, 453
2015-10-27 17:12:50.086127, 455
2015-10-27 17:12:50.086196, 454
2015-10-27 17:12:50.086243, 453
2015-10-27 17:12:50.102277, 456
2015-10-27 17:12:50.102370, 457
2015-10-27 17:12:50.102436, 460
2015-10-27 17:12:50.118123, 461
2015-10-27 17:12:50.118216, 461
2015-10-27 17:12:50.118355, 460
2015-10-27 17:12:50.134235, 461
2015-10-27 17:12:50.134330, 462
2015-10-27 17:12:50.134396, 463
2015-10-27 17:12:50.150374, 462
2015-10-27 17:12:50.150470, 461
2015-10-27 17:12:50.150545, 462
2015-10-27 17:12:50.166217, 464
2015-10-27 17:12:50.166327, 464
2015-10-27 17:12:50.166395, 464
2015-10-27 17:12:50.182248, 464
2015-10-27 17:12:50.182357, 463
2015-10-27 17:12:50.182425, 462
2015-10-27 17:12:50.198253, 461
2015-10-27 17:12:50.198363, 460
2015-10-27 17:12:50.198429, 460
2015-10-27 17:12:50.198492, 460
2015-10-27 17:12:50.214247, 460
2015-10-27 17:12:50.214340, 460
2015-10-27 17:12:50.214407, 461
2015-10-27 17:12:50.230313, 463
2015-10-27 17:12:50.230404, 465
2015-10-27 17:12:50.230470, 465
2015-10-27 17:12:50.246264, 465
2015-10-27 17:12:50.246356, 466
2015-10-27 17:12:50.246421, 467
2015-10-27 17:12:50.262199, 466
2015-10-27 17:12:50.262291, 466
2015-10-27 17:12:50.262357, 466
2015-10-27 17:12:50.278362, 467
2015-10-27 17:12:50.278479, 469
2015-10-27 17:12:50.278545, 471
2015-10-27 17:12:50.294333, 472
2015-10-27 17:12:50.294573, 472
2015-10-27 17:12:50.294694, 473
2015-10-27 17:12:50.310432, 473
2015-10-27 17:12:50.310526, 474
2015-10-27 17:12:50.310592, 475
2015-10-27 17:12:50.326342, 477
2015-10-27 17:12:50.326434, 477
2015-10-27 17:12:50.326500, 477
2015-10-27 17:12:50.342320, 476
2015-10-27 17:12:50.342484, 477
2015-10-27 17:12:50.342552, 479
2015-10-27 17:12:50.358302, 481
2015-10-27 17:12:50.358422, 482
2015-10-27 17:12:50.358489, 483
2015-10-27 17:12:50.374233, 488
2015-10-27 17:12:50.374360, 497
2015-10-27 17:12:50.374426, 504
2015-10-27 17:12:50.390214, 505
2015-10-27 17:12:50.390309, 503
2015-10-27 17:12:50.390375, 499
2015-10-27 17:12:50.406255, 496
2015-10-27 17:12:50.406412, 496
2015-10-27 17:12:50.406478, 496
2015-10-27 17:12:50.422164, 491
2015-10-27 17:12:50.422349, 486
2015-10-27 17:12:50.422418, 481
2015-10-27 17:12:50.438170, 477
2015-10-27 17:12:50.438280, 476
2015-10-27 17:12:50.438347, 478
2015-10-27 17:12:50.438410, 478
2015-10-27 17:12:50.454259, 478
2015-10-27 17:12:50.454350, 480
2015-10-27 17:12:50.454416, 481
2015-10-27 17:12:50.470242, 482
2015-10-27 17:12:50.470334, 482
2015-10-27 17:12:50.470400, 483
2015-10-27 17:12:50.486056, 482
2015-10-27 17:12:50.486147, 486
2015-10-27 17:12:50.486226, 519
2015-10-27 17:12:50.502016, 617
2015-10-27 17:12:50.502109, 771
2015-10-27 17:12:50.502175, 890
2015-10-27 17:12:50.518161, 975
2015-10-27 17:12:50.518254, 994
2015-10-27 17:12:50.518320, 979
2015-10-27 17:12:50.534109, 794
2015-10-27 17:12:50.534199, 435
2015-10-27 17:12:50.534264, 209
2015-10-27 17:12:50.550192, 195
2015-10-27 17:12:50.550285, 261
2015-10-27 17:12:50.550351, 319
2015-10-27 17:12:50.566163, 362
2015-10-27 17:12:50.566253, 409
2015-10-27 17:12:50.566319, 446
2015-10-27 17:12:50.582127, 465
2015-10-27 17:12:50.582218, 475
2015-10-27 17:12:50.582285, 480
2015-10-27 17:12:50.598169, 484
2015-10-27 17:12:50.598261, 488
2015-10-27 17:12:50.598327, 494
2015-10-27 17:12:50.614087, 499
2015-10-27 17:12:50.614179, 503
2015-10-27 17:12:50.614244, 506
2015-10-27 17:12:50.630090, 508
2015-10-27 17:12:50.630185, 512
2015-10-27 17:12:50.630324, 517
2015-10-27 17:12:50.646020, 520
2015-10-27 17:12:50.646134, 523
2015-10-27 17:12:50.646202, 527
2015-10-27 17:12:50.662085, 530
2015-10-27 17:12:50.662194, 535
2015-10-27 17:12:50.662260, 540
2015-10-27 17:12:50.677926, 544
2015-10-27 17:12:50.678035, 549
2015-10-27 17:12:50.678103, 557
2015-10-27 17:12:50.678167, 567
2015-10-27 17:12:50.694138, 577
2015-10-27 17:12:50.694229, 585
2015-10-27 17:12:50.694295, 595
2015-10-27 17:12:50.710108, 605
2015-10-27 17:12:50.710201, 616
2015-10-27 17:12:50.710281, 625
2015-10-27 17:12:50.726147, 634
2015-10-27 17:12:50.726238, 642
2015-10-27 17:12:50.726303, 650
2015-10-27 17:12:50.742204, 657
2015-10-27 17:12:50.742321, 662
2015-10-27 17:12:50.742386, 665
2015-10-27 17:12:50.758192, 665
2015-10-27 17:12:50.758307, 660
2015-10-27 17:12:50.758374, 655
2015-10-27 17:12:50.774049, 649
2015-10-27 17:12:50.774142, 637
2015-10-27 17:12:50.774209, 621
2015-10-27 17:12:50.790100, 599
2015-10-27 17:12:50.790193, 575
2015-10-27 17:12:50.790258, 552
2015-10-27 17:12:50.805890, 531
2015-10-27 17:12:50.805954, 512
2015-10-27 17:12:50.805999, 496
2015-10-27 17:12:50.821919, 482
2015-10-27 17:12:50.822017, 470
2015-10-27 17:12:50.822102, 459
2015-10-27 17:12:50.838090, 451
2015-10-27 17:12:50.838184, 448
2015-10-27 17:12:50.838250, 447
2015-10-27 17:12:50.853888, 446
2015-10-27 17:12:50.853983, 445
2015-10-27 17:12:50.854048, 446
2015-10-27 17:12:50.870092, 447
2015-10-27 17:12:50.870310, 449
2015-10-27 17:12:50.870421, 450
2015-10-27 17:12:50.885999, 452
2015-10-27 17:12:50.886107, 454
2015-10-27 17:12:50.886173, 455
2015-10-27 17:12:50.901895, 455
2015-10-27 17:12:50.902003, 455
2015-10-27 17:12:50.902070, 457
2015-10-27 17:12:50.917918, 459
2015-10-27 17:12:50.918032, 458
2015-10-27 17:12:50.918100, 458
2015-10-27 17:12:50.918163, 461
2015-10-27 17:12:50.934040, 463
2015-10-27 17:12:50.934131, 462
2015-10-27 17:12:50.934196, 461
2015-10-27 17:12:50.950012, 460
2015-10-27 17:12:50.950101, 462
2015-10-27 17:12:50.950166, 465
2015-10-27 17:12:50.965877, 467
2015-10-27 17:12:50.966018, 466
2015-10-27 17:12:50.966095, 463
2015-10-27 17:12:50.982011, 460
2015-10-27 17:12:50.982100, 459
2015-10-27 17:12:50.982166, 460
2015-10-27 17:12:50.997962, 461
2015-10-27 17:12:50.998052, 463
2015-10-27 17:12:50.998118, 462
2015-10-27 17:12:51.014026, 462
2015-10-27 17:12:51.014116, 461
2015-10-27 17:12:51.014181, 462
2015-10-27 17:12:51.030035, 462
2015-10-27 17:12:51.030126, 462
2015-10-27 17:12:51.030191, 462
2015-10-27 17:12:51.046020, 460
2015-10-27 17:12:51.046113, 460
2015-10-27 17:12:51.046178, 459
2015-10-27 17:12:51.061891, 460
2015-10-27 17:12:51.061991, 460
2015-10-27 17:12:51.062106, 460
2015-10-27 17:12:51.078020, 462
2015-10-27 17:12:51.078116, 462
2015-10-27 17:12:51.078183, 463
2015-10-27 17:12:51.093925, 464
2015-10-27 17:12:51.094018, 466
2015-10-27 17:12:51.094083, 467
2015-10-27 17:12:51.109979, 469
2015-10-27 17:12:51.110073, 471
2015-10-27 17:12:51.110139, 473
2015-10-27 17:12:51.125993, 473
2015-10-27 17:12:51.126103, 472
2015-10-27 17:12:51.126170, 474
2015-10-27 17:12:51.141946, 475
2015-10-27 17:12:51.142082, 475
2015-10-27 17:12:51.142151, 474
2015-10-27 17:12:51.157943, 476
2015-10-27 17:12:51.158053, 478
2015-10-27 17:12:51.158120, 478
2015-10-27 17:12:51.173873, 477
2015-10-27 17:12:51.173983, 477
2015-10-27 17:12:51.174050, 478
2015-10-27 17:12:51.174113, 479
2015-10-27 17:12:51.189939, 481
2015-10-27 17:12:51.190032, 483
2015-10-27 17:12:51.190097, 483
2015-10-27 17:12:51.205964, 486
2015-10-27 17:12:51.206056, 487
2015-10-27 17:12:51.206121, 487
2015-10-27 17:12:51.221923, 488
2015-10-27 17:12:51.222016, 490
2015-10-27 17:12:51.222082, 495
2015-10-27 17:12:51.237996, 506
2015-10-27 17:12:51.238086, 515
2015-10-27 17:12:51.238151, 515
2015-10-27 17:12:51.254020, 511
2015-10-27 17:12:51.254113, 506
2015-10-27 17:12:51.254178, 502
2015-10-27 17:12:51.270042, 501
2015-10-27 17:12:51.270134, 501
2015-10-27 17:12:51.270198, 497
2015-10-27 17:12:51.286025, 492
2015-10-27 17:12:51.286116, 487
2015-10-27 17:12:51.286181, 484
2015-10-27 17:12:51.302129, 482
2015-10-27 17:12:51.302221, 482
2015-10-27 17:12:51.302287, 484
2015-10-27 17:12:51.318071, 485
2015-10-27 17:12:51.318162, 484
2015-10-27 17:12:51.318228, 484
2015-10-27 17:12:51.334103, 484
2015-10-27 17:12:51.334291, 484
2015-10-27 17:12:51.334434, 484
2015-10-27 17:12:51.350074, 487
2015-10-27 17:12:51.350197, 488
2015-10-27 17:12:51.350263, 493
2015-10-27 17:12:51.365892, 518
2015-10-27 17:12:51.365987, 598
2015-10-27 17:12:51.366053, 750
2015-10-27 17:12:51.381913, 878
2015-10-27 17:12:51.382026, 955
2015-10-27 17:12:51.382093, 975
2015-10-27 17:12:51.397893, 918
2015-10-27 17:12:51.398120, 723
2015-10-27 17:12:51.398204, 403
2015-10-27 17:12:51.414026, 193
2015-10-27 17:12:51.414140, 180
2015-10-27 17:12:51.414207, 243
2015-10-27 17:12:51.414271, 303
2015-10-27 17:12:51.430099, 349
2015-10-27 17:12:51.430194, 397
2015-10-27 17:12:51.430261, 444
2015-10-27 17:12:51.445994, 473
2015-10-27 17:12:51.446084, 488
2015-10-27 17:12:51.446150, 496
2015-10-27 17:12:51.462103, 501
2015-10-27 17:12:51.462194, 504
2015-10-27 17:12:51.462259, 508
2015-10-27 17:12:51.478086, 513
2015-10-27 17:12:51.478201, 518
2015-10-27 17:12:51.478266, 520
2015-10-27 17:12:51.493961, 523
2015-10-27 17:12:51.494054, 526
2015-10-27 17:12:51.494120, 529
2015-10-27 17:12:51.510052, 534
2015-10-27 17:12:51.510169, 539
2015-10-27 17:12:51.510235, 542
2015-10-27 17:12:51.525868, 545
2015-10-27 17:12:51.525990, 549
2015-10-27 17:12:51.526056, 553
2015-10-27 17:12:51.542039, 557
2015-10-27 17:12:51.542132, 560
2015-10-27 17:12:51.542198, 567
2015-10-27 17:12:51.558028, 576
2015-10-27 17:12:51.558119, 585
2015-10-27 17:12:51.558185, 594
2015-10-27 17:12:51.573936, 603
2015-10-27 17:12:51.574032, 612
2015-10-27 17:12:51.574099, 621
2015-10-27 17:12:51.589922, 631
2015-10-27 17:12:51.590042, 640
2015-10-27 17:12:51.590108, 648
2015-10-27 17:12:51.606010, 657
2015-10-27 17:12:51.606105, 663
2015-10-27 17:12:51.606171, 665
2015-10-27 17:12:51.621887, 668
2015-10-27 17:12:51.621993, 669
2015-10-27 17:12:51.622059, 667
2015-10-27 17:12:51.637942, 664
2015-10-27 17:12:51.638105, 658
2015-10-27 17:12:51.638172, 647
2015-10-27 17:12:51.653735, 632
2015-10-27 17:12:51.653845, 609
2015-10-27 17:12:51.653912, 587
2015-10-27 17:12:51.653975, 567
2015-10-27 17:12:51.669906, 547
2015-10-27 17:12:51.669996, 528
2015-10-27 17:12:51.670063, 509
2015-10-27 17:12:51.685894, 495
2015-10-27 17:12:51.685987, 481
2015-10-27 17:12:51.686052, 472
2015-10-27 17:12:51.701854, 465
2015-10-27 17:12:51.701945, 458
2015-10-27 17:12:51.702010, 452
2015-10-27 17:12:51.718004, 450
2015-10-27 17:12:51.718095, 448
2015-10-27 17:12:51.718160, 448
2015-10-27 17:12:51.734010, 448
2015-10-27 17:12:51.734101, 449
2015-10-27 17:12:51.734194, 451
2015-10-27 17:12:51.750003, 453
2015-10-27 17:12:51.750094, 453
2015-10-27 17:12:51.750159, 454
2015-10-27 17:12:51.766056, 456
2015-10-27 17:12:51.766151, 458
2015-10-27 17:12:51.766217, 458
2015-10-27 17:12:51.781860, 457
2015-10-27 17:12:51.781952, 457
2015-10-27 17:12:51.782017, 459
2015-10-27 17:12:51.797840, 461
2015-10-27 17:12:51.797934, 462
2015-10-27 17:12:51.798000, 463
2015-10-27 17:12:51.813913, 465
2015-10-27 17:12:51.814039, 467
2015-10-27 17:12:51.814105, 468
2015-10-27 17:12:51.829737, 469
2015-10-27 17:12:51.829835, 468
2015-10-27 17:12:51.829902, 468
2015-10-27 17:12:51.845981, 467
2015-10-27 17:12:51.846114, 466
2015-10-27 17:12:51.846181, 465
2015-10-27 17:12:51.862051, 464
2015-10-27 17:12:51.862218, 464
2015-10-27 17:12:51.862289, 464
2015-10-27 17:12:51.877683, 464
2015-10-27 17:12:51.877792, 466
2015-10-27 17:12:51.877859, 466
2015-10-27 17:12:51.893862, 466
2015-10-27 17:12:51.894011, 465
2015-10-27 17:12:51.894077, 466
2015-10-27 17:12:51.894140, 466
2015-10-27 17:12:51.909916, 466
2015-10-27 17:12:51.910008, 466
2015-10-27 17:12:51.910074, 466
2015-10-27 17:12:51.925998, 464
2015-10-27 17:12:51.926088, 465
2015-10-27 17:12:51.926154, 464
2015-10-27 17:12:51.941963, 465
2015-10-27 17:12:51.942054, 466
2015-10-27 17:12:51.942120, 467
2015-10-27 17:12:51.957763, 465
2015-10-27 17:12:51.957852, 465
2015-10-27 17:12:51.957919, 466
2015-10-27 17:12:51.973908, 466
2015-10-27 17:12:51.974000, 465
2015-10-27 17:12:51.974066, 465
2015-10-27 17:12:51.989930, 466
2015-10-27 17:12:51.990029, 467
2015-10-27 17:12:51.990168, 468
2015-10-27 17:12:52.005910, 470
2015-10-27 17:12:52.006003, 471
2015-10-27 17:12:52.006069, 471
2015-10-27 17:12:52.021872, 471
2015-10-27 17:12:52.021963, 471
2015-10-27 17:12:52.022032, 472
2015-10-27 17:12:52.037675, 475
2015-10-27 17:12:52.037767, 477
2015-10-27 17:12:52.037844, 478
2015-10-27 17:12:52.053812, 479
2015-10-27 17:12:52.053909, 479
2015-10-27 17:12:52.053975, 478
2015-10-27 17:12:52.069940, 479
2015-10-27 17:12:52.070098, 481
2015-10-27 17:12:52.070228, 484
2015-10-27 17:12:52.085743, 486
2015-10-27 17:12:52.085839, 486
2015-10-27 17:12:52.085905, 487
2015-10-27 17:12:52.101702, 495
2015-10-27 17:12:52.101877, 509
2015-10-27 17:12:52.101947, 518
2015-10-27 17:12:52.117603, 519
2015-10-27 17:12:52.117822, 515
2015-10-27 17:12:52.117958, 507
2015-10-27 17:12:52.133815, 503
2015-10-27 17:12:52.133981, 503
2015-10-27 17:12:52.134049, 499
2015-10-27 17:12:52.134112, 494
2015-10-27 17:12:52.149710, 489
2015-10-27 17:12:52.149800, 485
2015-10-27 17:12:52.149866, 482
2015-10-27 17:12:52.165830, 480
2015-10-27 17:12:52.165923, 481
2015-10-27 17:12:52.165990, 481
2015-10-27 17:12:52.181712, 481
2015-10-27 17:12:52.181804, 483
2015-10-27 17:12:52.181870, 483
2015-10-27 17:12:52.197790, 483
2015-10-27 17:12:52.197881, 486
2015-10-27 17:12:52.197947, 488
2015-10-27 17:12:52.213714, 491
2015-10-27 17:12:52.213804, 491
2015-10-27 17:12:52.213869, 494
2015-10-27 17:12:52.229856, 518
2015-10-27 17:12:52.229947, 597
2015-10-27 17:12:52.230013, 751
2015-10-27 17:12:52.245710, 880
2015-10-27 17:12:52.245774, 958
2015-10-27 17:12:52.245819, 975
2015-10-27 17:12:52.261840, 905
2015-10-27 17:12:52.261962, 698
2015-10-27 17:12:52.262028, 372
2015-10-27 17:12:52.277612, 175
2015-10-27 17:12:52.277702, 176
2015-10-27 17:12:52.277768, 240
2015-10-27 17:12:52.293768, 297
2015-10-27 17:12:52.293859, 342
2015-10-27 17:12:52.293926, 396
2015-10-27 17:12:52.309742, 446
2015-10-27 17:12:52.309835, 474
2015-10-27 17:12:52.309899, 487
2015-10-27 17:12:52.325793, 494
2015-10-27 17:12:52.325926, 498
2015-10-27 17:12:52.325993, 503
2015-10-27 17:12:52.341658, 507
2015-10-27 17:12:52.341755, 510
2015-10-27 17:12:52.341821, 516
2015-10-27 17:12:52.357721, 521
2015-10-27 17:12:52.357882, 523
2015-10-27 17:12:52.357949, 526
2015-10-27 17:12:52.373552, 527
2015-10-27 17:12:52.373660, 530
2015-10-27 17:12:52.373731, 534
2015-10-27 17:12:52.389628, 538
2015-10-27 17:12:52.389739, 542
2015-10-27 17:12:52.389806, 545
2015-10-27 17:12:52.389869, 550
2015-10-27 17:12:52.405847, 555
2015-10-27 17:12:52.405939, 565
2015-10-27 17:12:52.406004, 572
2015-10-27 17:12:52.421662, 580
2015-10-27 17:12:52.421753, 587
2015-10-27 17:12:52.421818, 597
2015-10-27 17:12:52.437715, 606
2015-10-27 17:12:52.437807, 615
2015-10-27 17:12:52.437874, 624
2015-10-27 17:12:52.453700, 633
2015-10-27 17:12:52.453793, 642
2015-10-27 17:12:52.453858, 651
2015-10-27 17:12:52.469793, 659
2015-10-27 17:12:52.469910, 664
2015-10-27 17:12:52.469977, 668
2015-10-27 17:12:52.485696, 669
2015-10-27 17:12:52.485801, 669
2015-10-27 17:12:52.485868, 669
2015-10-27 17:12:52.501655, 665
2015-10-27 17:12:52.501748, 658
2015-10-27 17:12:52.501813, 646
2015-10-27 17:12:52.517702, 633
2015-10-27 17:12:52.517797, 615
2015-10-27 17:12:52.517890, 595
2015-10-27 17:12:52.533761, 573
2015-10-27 17:12:52.533854, 551
2015-10-27 17:12:52.533939, 531
2015-10-27 17:12:52.549594, 513
2015-10-27 17:12:52.549689, 498
2015-10-27 17:12:52.549755, 486
2015-10-27 17:12:52.565766, 475
2015-10-27 17:12:52.565864, 466
2015-10-27 17:12:52.565931, 460
2015-10-27 17:12:52.581660, 457
2015-10-27 17:12:52.581834, 455
2015-10-27 17:12:52.581904, 452
2015-10-27 17:12:52.597591, 450
2015-10-27 17:12:52.597716, 450
2015-10-27 17:12:52.597786, 451
2015-10-27 17:12:52.613551, 452
2015-10-27 17:12:52.613699, 454
2015-10-27 17:12:52.613766, 455
2015-10-27 17:12:52.629538, 456
2015-10-27 17:12:52.629649, 457
2015-10-27 17:12:52.629716, 456
2015-10-27 17:12:52.629779, 454
2015-10-27 17:12:52.645739, 451
2015-10-27 17:12:52.645830, 452
2015-10-27 17:12:52.645896, 453
2015-10-27 17:12:52.661743, 453
2015-10-27 17:12:52.661834, 455
2015-10-27 17:12:52.661899, 458
2015-10-27 17:12:52.677606, 458
2015-10-27 17:12:52.677696, 460
2015-10-27 17:12:52.677761, 462
2015-10-27 17:12:52.693701, 464
2015-10-27 17:12:52.693792, 464
2015-10-27 17:12:52.693857, 463
2015-10-27 17:12:52.709797, 462
2015-10-27 17:12:52.709936, 463
2015-10-27 17:12:52.710020, 463
2015-10-27 17:12:52.725665, 464
2015-10-27 17:12:52.725757, 465
2015-10-27 17:12:52.725822, 463
2015-10-27 17:12:52.741642, 464
2015-10-27 17:12:52.741757, 464
2015-10-27 17:12:52.741823, 464
2015-10-27 17:12:52.757511, 462
2015-10-27 17:12:52.757607, 462
2015-10-27 17:12:52.757673, 462
2015-10-27 17:12:52.773657, 462
2015-10-27 17:12:52.773779, 461
2015-10-27 17:12:52.773846, 460
2015-10-27 17:12:52.789626, 460
2015-10-27 17:12:52.789756, 460
2015-10-27 17:12:52.789822, 461
2015-10-27 17:12:52.805504, 463
2015-10-27 17:12:52.805598, 463
2015-10-27 17:12:52.805664, 464
2015-10-27 17:12:52.821543, 464
2015-10-27 17:12:52.821639, 465
2015-10-27 17:12:52.821704, 466
2015-10-27 17:12:52.837472, 466
2015-10-27 17:12:52.837586, 466
2015-10-27 17:12:52.837653, 467
2015-10-27 17:12:52.853534, 468
2015-10-27 17:12:52.853645, 469
2015-10-27 17:12:52.853772, 469
2015-10-27 17:12:52.869480, 470
2015-10-27 17:12:52.869590, 472
2015-10-27 17:12:52.869657, 473
2015-10-27 17:12:52.869720, 473
2015-10-27 17:12:52.885531, 474
2015-10-27 17:12:52.885623, 476
2015-10-27 17:12:52.885689, 476
2015-10-27 17:12:52.901509, 477
2015-10-27 17:12:52.901599, 477
2015-10-27 17:12:52.901666, 477
2015-10-27 17:12:52.917727, 479
2015-10-27 17:12:52.917885, 480
2015-10-27 17:12:52.918005, 482
2015-10-27 17:12:52.933414, 484
2015-10-27 17:12:52.933504, 485
2015-10-27 17:12:52.933569, 485
2015-10-27 17:12:52.949438, 485
2015-10-27 17:12:52.949527, 486
2015-10-27 17:12:52.949593, 489
2015-10-27 17:12:52.965327, 492
2015-10-27 17:12:52.965421, 493
2015-10-27 17:12:52.965485, 493
2015-10-27 17:12:52.981446, 493
2015-10-27 17:12:52.981538, 500
2015-10-27 17:12:52.981604, 515
2015-10-27 17:12:52.997546, 525
2015-10-27 17:12:52.997660, 525
2015-10-27 17:12:52.997727, 520
2015-10-27 17:12:53.013380, 516
2015-10-27 17:12:53.013472, 513
2015-10-27 17:12:53.013538, 510
2015-10-27 17:12:53.029502, 506
2015-10-27 17:12:53.029623, 501
2015-10-27 17:12:53.029689, 494
2015-10-27 17:12:53.045488, 489
2015-10-27 17:12:53.045609, 484
2015-10-27 17:12:53.045676, 484
2015-10-27 17:12:53.061496, 485
2015-10-27 17:12:53.061618, 485
2015-10-27 17:12:53.061683, 488
2015-10-27 17:12:53.077452, 488
2015-10-27 17:12:53.077604, 488
2015-10-27 17:12:53.077671, 487
2015-10-27 17:12:53.093233, 487
2015-10-27 17:12:53.093343, 488
2015-10-27 17:12:53.093411, 491
2015-10-27 17:12:53.109455, 493
2015-10-27 17:12:53.109617, 500
2015-10-27 17:12:53.109685, 532
2015-10-27 17:12:53.125458, 625
2015-10-27 17:12:53.125621, 777
2015-10-27 17:12:53.125689, 895
2015-10-27 17:12:53.125753, 965
2015-10-27 17:12:53.141451, 971
2015-10-27 17:12:53.141540, 884
2015-10-27 17:12:53.141605, 650
2015-10-27 17:12:53.157500, 324
2015-10-27 17:12:53.157591, 166
2015-10-27 17:12:53.157657, 187
2015-10-27 17:12:53.173488, 253
2015-10-27 17:12:53.173582, 306
2015-10-27 17:12:53.173648, 352
2015-10-27 17:12:53.189504, 406
2015-10-27 17:12:53.189595, 452
2015-10-27 17:12:53.189667, 477
2015-10-27 17:12:53.205447, 489
2015-10-27 17:12:53.205539, 497
2015-10-27 17:12:53.205605, 501
2015-10-27 17:12:53.221194, 506
2015-10-27 17:12:53.221268, 513
2015-10-27 17:12:53.221322, 516
2015-10-27 17:12:53.237397, 518
2015-10-27 17:12:53.237489, 520
2015-10-27 17:12:53.237554, 524
2015-10-27 17:12:53.253382, 528
2015-10-27 17:12:53.253474, 530
2015-10-27 17:12:53.253540, 533
2015-10-27 17:12:53.269415, 535
2015-10-27 17:12:53.269509, 540
2015-10-27 17:12:53.269575, 546
2015-10-27 17:12:53.285422, 553
2015-10-27 17:12:53.285525, 559
2015-10-27 17:12:53.285592, 564
2015-10-27 17:12:53.301465, 568
2015-10-27 17:12:53.301620, 574
2015-10-27 17:12:53.301713, 580
2015-10-27 17:12:53.317382, 586
2015-10-27 17:12:53.317476, 595
2015-10-27 17:12:53.317541, 604
2015-10-27 17:12:53.333250, 615
2015-10-27 17:12:53.333373, 625
2015-10-27 17:12:53.333442, 634
2015-10-27 17:12:53.349398, 644
2015-10-27 17:12:53.349509, 653
2015-10-27 17:12:53.349577, 661
2015-10-27 17:12:53.365238, 666
2015-10-27 17:12:53.365422, 669
2015-10-27 17:12:53.365554, 671
2015-10-27 17:12:53.365677, 673
2015-10-27 17:12:53.381210, 671
2015-10-27 17:12:53.381295, 666
2015-10-27 17:12:53.381365, 658
2015-10-27 17:12:53.397232, 648
2015-10-27 17:12:53.397322, 634
2015-10-27 17:12:53.397392, 614
2015-10-27 17:12:53.413219, 590
2015-10-27 17:12:53.413315, 568
2015-10-27 17:12:53.413363, 547
2015-10-27 17:12:53.429218, 530
2015-10-27 17:12:53.429331, 513
2015-10-27 17:12:53.429400, 497
2015-10-27 17:12:53.445203, 483
2015-10-27 17:12:53.445258, 470
2015-10-27 17:12:53.445295, 462
2015-10-27 17:12:53.461177, 459
2015-10-27 17:12:53.461236, 458
2015-10-27 17:12:53.461277, 456
2015-10-27 17:12:53.477407, 455
2015-10-27 17:12:53.477501, 456
2015-10-27 17:12:53.477627, 456
2015-10-27 17:12:53.493392, 454
2015-10-27 17:12:53.493485, 454
2015-10-27 17:12:53.493550, 454
2015-10-27 17:12:53.510845, 455
2015-10-27 17:12:53.511052, 454
2015-10-27 17:12:53.511355, 456
2015-10-27 17:12:53.526845, 457
2015-10-27 17:12:53.526975, 457
2015-10-27 17:12:53.527100, 458
2015-10-27 17:12:53.541309, 460
2015-10-27 17:12:53.541409, 461
2015-10-27 17:12:53.541579, 460
2015-10-27 17:12:53.557309, 457
2015-10-27 17:12:53.557421, 457
2015-10-27 17:12:53.557510, 459
2015-10-27 17:12:53.573426, 462
2015-10-27 17:12:53.573559, 463
2015-10-27 17:12:53.573806, 463
2015-10-27 17:12:53.589211, 463
2015-10-27 17:12:53.589505, 462
2015-10-27 17:12:53.589636, 461
2015-10-27 17:12:53.605215, 462
2015-10-27 17:12:53.605325, 464
2015-10-27 17:12:53.605391, 465
2015-10-27 17:12:53.605453, 464
2015-10-27 17:12:53.621300, 463
2015-10-27 17:12:53.621389, 466
2015-10-27 17:12:53.621497, 466
2015-10-27 17:12:53.637175, 465
2015-10-27 17:12:53.637229, 463
2015-10-27 17:12:53.637266, 464
2015-10-27 17:12:53.653227, 466
2015-10-27 17:12:53.653316, 466
2015-10-27 17:12:53.653383, 465
2015-10-27 17:12:53.669073, 465
2015-10-27 17:12:53.669126, 465
2015-10-27 17:12:53.669164, 464
2015-10-27 17:12:53.685218, 463
2015-10-27 17:12:53.685313, 464
2015-10-27 17:12:53.685395, 465
2015-10-27 17:12:53.701523, 467
2015-10-27 17:12:53.701619, 466
2015-10-27 17:12:53.701770, 467
2015-10-27 17:12:53.717166, 466
2015-10-27 17:12:53.717262, 468
2015-10-27 17:12:53.717329, 467
2015-10-27 17:12:53.733158, 467
2015-10-27 17:12:53.733311, 469
2015-10-27 17:12:53.733442, 468
2015-10-27 17:12:53.749204, 466
2015-10-27 17:12:53.749346, 466
2015-10-27 17:12:53.749414, 467
2015-10-27 17:12:53.765708, 469
2015-10-27 17:12:53.765802, 470
2015-10-27 17:12:53.765874, 471
2015-10-27 17:12:53.781169, 471
2015-10-27 17:12:53.781323, 469
2015-10-27 17:12:53.781395, 470
2015-10-27 17:12:53.797229, 471
2015-10-27 17:12:53.797324, 471
2015-10-27 17:12:53.797402, 471
2015-10-27 17:12:53.813055, 472
2015-10-27 17:12:53.813154, 474
2015-10-27 17:12:53.813216, 476
2015-10-27 17:12:53.829215, 477
2015-10-27 17:12:53.829324, 477
2015-10-27 17:12:53.829390, 478
2015-10-27 17:12:53.845187, 479
2015-10-27 17:12:53.845298, 480
2015-10-27 17:12:53.845365, 480
2015-10-27 17:12:53.845428, 481
2015-10-27 17:12:53.861278, 482
2015-10-27 17:12:53.861368, 483
2015-10-27 17:12:53.861433, 487
2015-10-27 17:12:53.877284, 488
2015-10-27 17:12:53.877377, 488
2015-10-27 17:12:53.877443, 496
2015-10-27 17:12:53.893402, 510
2015-10-27 17:12:53.893494, 520
2015-10-27 17:12:53.893558, 521
2015-10-27 17:12:53.909305, 514
2015-10-27 17:12:53.909420, 509
2015-10-27 17:12:53.909486, 505
2015-10-27 17:12:53.925135, 503
2015-10-27 17:12:53.925226, 499
2015-10-27 17:12:53.925292, 493
2015-10-27 17:12:53.941211, 487
2015-10-27 17:12:53.941300, 484
2015-10-27 17:12:53.941365, 480
2015-10-27 17:12:53.959094, 479
2015-10-27 17:12:53.959167, 479
2015-10-27 17:12:53.959220, 481
2015-10-27 17:12:53.972972, 483
2015-10-27 17:12:53.973023, 484
2015-10-27 17:12:53.973069, 484
2015-10-27 17:12:53.989073, 484
2015-10-27 17:12:53.989137, 486
2015-10-27 17:12:53.989182, 487
2015-10-27 17:12:54.005197, 488
2015-10-27 17:12:54.005290, 492
2015-10-27 17:12:54.005356, 500
2015-10-27 17:12:54.021414, 538
2015-10-27 17:12:54.021719, 644
2015-10-27 17:12:54.021790, 799
2015-10-27 17:12:54.037557, 917
2015-10-27 17:12:54.037652, 982
2015-10-27 17:12:54.037718, 980
2015-10-27 17:12:54.053167, 894
2015-10-27 17:12:54.053319, 648
2015-10-27 17:12:54.053386, 316
2015-10-27 17:12:54.068987, 173
2015-10-27 17:12:54.069092, 199
2015-10-27 17:12:54.069159, 262
2015-10-27 17:12:54.085069, 310
2015-10-27 17:12:54.085182, 353
2015-10-27 17:12:54.085248, 404
2015-10-27 17:12:54.085311, 448
2015-10-27 17:12:54.101232, 477
2015-10-27 17:12:54.101324, 489
2015-10-27 17:12:54.101407, 495
2015-10-27 17:12:54.117202, 500
2015-10-27 17:12:54.117291, 507
2015-10-27 17:12:54.117357, 513
2015-10-27 17:12:54.133314, 515
2015-10-27 17:12:54.133408, 516
2015-10-27 17:12:54.133484, 520
2015-10-27 17:12:54.149318, 525
2015-10-27 17:12:54.149459, 528
2015-10-27 17:12:54.149530, 529
2015-10-27 17:12:54.165260, 531
2015-10-27 17:12:54.165350, 535
2015-10-27 17:12:54.165416, 543
2015-10-27 17:12:54.181148, 548
2015-10-27 17:12:54.181240, 552
2015-10-27 17:12:54.181305, 557
2015-10-27 17:12:54.197962, 563
2015-10-27 17:12:54.198035, 572
2015-10-27 17:12:54.198088, 578
2015-10-27 17:12:54.213027, 584
2015-10-27 17:12:54.213207, 594
2015-10-27 17:12:54.213279, 603
2015-10-27 17:12:54.229010, 613
2015-10-27 17:12:54.229100, 624
2015-10-27 17:12:54.229166, 633
2015-10-27 17:12:54.245010, 641
2015-10-27 17:12:54.245102, 652
2015-10-27 17:12:54.245169, 660
2015-10-27 17:12:54.261134, 665
2015-10-27 17:12:54.261229, 669
2015-10-27 17:12:54.261295, 673
2015-10-27 17:12:54.277046, 676
2015-10-27 17:12:54.277144, 676
2015-10-27 17:12:54.277211, 674
2015-10-27 17:12:54.293232, 669
2015-10-27 17:12:54.293365, 662
2015-10-27 17:12:54.293433, 650
2015-10-27 17:12:54.309203, 633
2015-10-27 17:12:54.309316, 614
2015-10-27 17:12:54.309384, 590
2015-10-27 17:12:54.324937, 568
2015-10-27 17:12:54.325076, 549
2015-10-27 17:12:54.325173, 529
2015-10-27 17:12:54.340951, 510
2015-10-27 17:12:54.341112, 494
2015-10-27 17:12:54.341180, 485
2015-10-27 17:12:54.341244, 477
2015-10-27 17:12:54.357213, 468
2015-10-27 17:12:54.357304, 460
2015-10-27 17:12:54.357370, 454
2015-10-27 17:12:54.373094, 449
2015-10-27 17:12:54.373187, 450
2015-10-27 17:12:54.373253, 451
2015-10-27 17:12:54.389078, 451
2015-10-27 17:12:54.389171, 451
2015-10-27 17:12:54.389236, 452
2015-10-27 17:12:54.404973, 455
2015-10-27 17:12:54.405063, 459
2015-10-27 17:12:54.405128, 459
2015-10-27 17:12:54.421035, 458
2015-10-27 17:12:54.421126, 458
2015-10-27 17:12:54.421191, 459
2015-10-27 17:12:54.437102, 460
2015-10-27 17:12:54.437192, 461
2015-10-27 17:12:54.437258, 461
2015-10-27 17:12:54.453081, 462
2015-10-27 17:12:54.453172, 463
2015-10-27 17:12:54.453237, 463
2015-10-27 17:12:54.468988, 464
2015-10-27 17:12:54.469316, 466
2015-10-27 17:12:54.469481, 466
2015-10-27 17:12:54.484882, 466
2015-10-27 17:12:54.484973, 466
2015-10-27 17:12:54.485044, 466
2015-10-27 17:12:54.500863, 466
2015-10-27 17:12:54.500959, 466
2015-10-27 17:12:54.501025, 464
2015-10-27 17:12:54.517280, 464
2015-10-27 17:12:54.517368, 462
2015-10-27 17:12:54.517434, 461
2015-10-27 17:12:54.532871, 462
2015-10-27 17:12:54.532946, 463
2015-10-27 17:12:54.532985, 465
2015-10-27 17:12:54.548818, 462
2015-10-27 17:12:54.548886, 462
2015-10-27 17:12:54.548924, 464
2015-10-27 17:12:54.564815, 466
2015-10-27 17:12:54.564961, 465
2015-10-27 17:12:54.565042, 466
2015-10-27 17:12:54.580868, 466
2015-10-27 17:12:54.580964, 466
2015-10-27 17:12:54.581605, 467
2015-10-27 17:12:54.581747, 468
2015-10-27 17:12:54.596983, 467
2015-10-27 17:12:54.597054, 469
2015-10-27 17:12:54.597100, 471
2015-10-27 17:12:54.612890, 470
2015-10-27 17:12:54.612980, 470
2015-10-27 17:12:54.613046, 471
2015-10-27 17:12:54.628981, 470
2015-10-27 17:12:54.629107, 471
2015-10-27 17:12:54.629204, 473
2015-10-27 17:12:54.644934, 474
2015-10-27 17:12:54.645000, 475
2015-10-27 17:12:54.645045, 477
2015-10-27 17:12:54.660955, 477
2015-10-27 17:12:54.661043, 479
2015-10-27 17:12:54.661124, 479
2015-10-27 17:12:54.676831, 479
2015-10-27 17:12:54.676981, 480
2015-10-27 17:12:54.677054, 480
2015-10-27 17:12:54.692777, 484
2015-10-27 17:12:54.692838, 486
2015-10-27 17:12:54.692879, 485
2015-10-27 17:12:54.708803, 484
2015-10-27 17:12:54.708925, 483
2015-10-27 17:12:54.708997, 486
2015-10-27 17:12:54.724878, 489
2015-10-27 17:12:54.725014, 487
2015-10-27 17:12:54.725081, 485
2015-10-27 17:12:54.740807, 486
2015-10-27 17:12:54.740971, 490
2015-10-27 17:12:54.741023, 493
2015-10-27 17:12:54.756800, 492
2015-10-27 17:12:54.756950, 492
2015-10-27 17:12:54.757017, 500
2015-10-27 17:12:54.772793, 513
2015-10-27 17:12:54.772887, 520
2015-10-27 17:12:54.772926, 519
2015-10-27 17:12:54.788721, 515
2015-10-27 17:12:54.788786, 511
2015-10-27 17:12:54.788824, 508
2015-10-27 17:12:54.804777, 507
2015-10-27 17:12:54.804855, 505
2015-10-27 17:12:54.804901, 501
2015-10-27 17:12:54.820781, 495
2015-10-27 17:12:54.820949, 491
2015-10-27 17:12:54.821032, 487
2015-10-27 17:12:54.821079, 483
2015-10-27 17:12:54.836811, 486
2015-10-27 17:12:54.836907, 485
2015-10-27 17:12:54.836985, 485
2015-10-27 17:12:54.852898, 485
2015-10-27 17:12:54.853085, 487
2015-10-27 17:12:54.853179, 487
2015-10-27 17:12:54.868813, 488
2015-10-27 17:12:54.868968, 491
2015-10-27 17:12:54.869051, 491
2015-10-27 17:12:54.885033, 495
2015-10-27 17:12:54.885273, 510
2015-10-27 17:12:54.885396, 568
2015-10-27 17:12:54.900809, 707
2015-10-27 17:12:54.900963, 860
2015-10-27 17:12:54.901034, 961
2015-10-27 17:12:54.916785, 993
2015-10-27 17:12:54.916849, 989
2015-10-27 17:12:54.916901, 893
2015-10-27 17:12:54.932729, 591
2015-10-27 17:12:54.932783, 270
2015-10-27 17:12:54.932821, 187
2015-10-27 17:12:54.949301, 232
2015-10-27 17:12:54.949393, 289
2015-10-27 17:12:54.949459, 328
2015-10-27 17:12:54.964736, 369
2015-10-27 17:12:54.964791, 416
2015-10-27 17:12:54.964829, 454
2015-10-27 17:12:54.980912, 475
2015-10-27 17:12:54.981006, 484
2015-10-27 17:12:54.981072, 490
2015-10-27 17:12:54.996780, 497
2015-10-27 17:12:54.996885, 502
2015-10-27 17:12:54.996952, 504
2015-10-27 17:12:55.012720, 505
2015-10-27 17:12:55.012807, 509
2015-10-27 17:12:55.012873, 511
2015-10-27 17:12:55.028680, 515
2015-10-27 17:12:55.028786, 519
2015-10-27 17:12:55.028857, 522
2015-10-27 17:12:55.044689, 525
2015-10-27 17:12:55.044802, 526
2015-10-27 17:12:55.044878, 530
2015-10-27 17:12:55.060658, 534
2015-10-27 17:12:55.060735, 539
2015-10-27 17:12:55.060805, 547
2015-10-27 17:12:55.060883, 556
2015-10-27 17:12:55.076768, 561
2015-10-27 17:12:55.077038, 567
2015-10-27 17:12:55.077142, 575
2015-10-27 17:12:55.092752, 584
2015-10-27 17:12:55.092924, 594
2015-10-27 17:12:55.093023, 604
2015-10-27 17:12:55.108823, 614
2015-10-27 17:12:55.109003, 622
2015-10-27 17:12:55.109254, 634
2015-10-27 17:12:55.124852, 647
2015-10-27 17:12:55.124965, 656
2015-10-27 17:12:55.125110, 664
2015-10-27 17:12:55.140801, 667
2015-10-27 17:12:55.141001, 667
2015-10-27 17:12:55.141166, 668
2015-10-27 17:12:55.156807, 668
2015-10-27 17:12:55.156991, 663
2015-10-27 17:12:55.157087, 656
2015-10-27 17:12:55.172689, 646
2015-10-27 17:12:55.172766, 634
2015-10-27 17:12:55.172813, 618
2015-10-27 17:12:55.188708, 597
2015-10-27 17:12:55.188803, 572
2015-10-27 17:12:55.188877, 548
2015-10-27 17:12:55.204689, 526
2015-10-27 17:12:55.204747, 506
2015-10-27 17:12:55.204788, 488
2015-10-27 17:12:55.220841, 474
2015-10-27 17:12:55.220935, 462
2015-10-27 17:12:55.221002, 456
2015-10-27 17:12:55.236798, 451
2015-10-27 17:12:55.236895, 447
2015-10-27 17:12:55.236961, 444
2015-10-27 17:12:55.252774, 443
2015-10-27 17:12:55.252869, 441
2015-10-27 17:12:55.252935, 442
2015-10-27 17:12:55.268971, 443
2015-10-27 17:12:55.269134, 445
2015-10-27 17:12:55.269201, 447
2015-10-27 17:12:55.284826, 448
2015-10-27 17:12:55.284969, 450
2015-10-27 17:12:55.285059, 451
2015-10-27 17:12:55.300820, 450
2015-10-27 17:12:55.300958, 451
2015-10-27 17:12:55.301027, 453
2015-10-27 17:12:55.301091, 456
2015-10-27 17:12:55.317157, 458
2015-10-27 17:12:55.317246, 455
2015-10-27 17:12:55.317312, 454
2015-10-27 17:12:55.332958, 456
2015-10-27 17:12:55.333050, 459
2015-10-27 17:12:55.333116, 460
2015-10-27 17:12:55.350755, 461
2015-10-27 17:12:55.350844, 464
2015-10-27 17:12:55.350909, 465
2015-10-27 17:12:55.365035, 465
2015-10-27 17:12:55.365125, 464
2015-10-27 17:12:55.365264, 464
2015-10-27 17:12:55.380787, 463
2015-10-27 17:12:55.380878, 461
2015-10-27 17:12:55.380945, 461
2015-10-27 17:12:55.397106, 463
2015-10-27 17:12:55.397252, 465
2015-10-27 17:12:55.397382, 466
2015-10-27 17:12:55.412872, 464
2015-10-27 17:12:55.412962, 461
2015-10-27 17:12:55.413028, 462
2015-10-27 17:12:55.428879, 464
2015-10-27 17:12:55.428983, 465
2015-10-27 17:12:55.429050, 465
2015-10-27 17:12:55.444997, 464
2015-10-27 17:12:55.445120, 461
2015-10-27 17:12:55.445186, 461
2015-10-27 17:12:55.461038, 461
2015-10-27 17:12:55.461348, 464
2015-10-27 17:12:55.461485, 467
2015-10-27 17:12:55.476960, 467
2015-10-27 17:12:55.477094, 468
2015-10-27 17:12:55.477161, 468
2015-10-27 17:12:55.492719, 469
2015-10-27 17:12:55.492843, 468
2015-10-27 17:12:55.492937, 467
2015-10-27 17:12:55.508666, 469
2015-10-27 17:12:55.508723, 469
2015-10-27 17:12:55.508769, 467
2015-10-27 17:12:55.524690, 466
2015-10-27 17:12:55.524812, 467
2015-10-27 17:12:55.524903, 468
2015-10-27 17:12:55.541027, 470
2015-10-27 17:12:55.541135, 474
2015-10-27 17:12:55.541201, 477
2015-10-27 17:12:55.556875, 478
2015-10-27 17:12:55.556987, 476
2015-10-27 17:12:55.557054, 477
2015-10-27 17:12:55.557117, 478
2015-10-27 17:12:55.572979, 476
2015-10-27 17:12:55.573071, 477
2015-10-27 17:12:55.573137, 476
2015-10-27 17:12:55.589057, 477
2015-10-27 17:12:55.589260, 479
2015-10-27 17:12:55.589344, 480
2015-10-27 17:12:55.604943, 481
2015-10-27 17:12:55.605033, 480
2015-10-27 17:12:55.605099, 481
2015-10-27 17:12:55.620852, 482
2015-10-27 17:12:55.620942, 483
2015-10-27 17:12:55.621007, 482
2015-10-27 17:12:55.636827, 482
2015-10-27 17:12:55.636910, 485
2015-10-27 17:12:55.636984, 496
2015-10-27 17:12:55.652777, 508
2015-10-27 17:12:55.652868, 512
2015-10-27 17:12:55.652934, 509
2015-10-27 17:12:55.668821, 504
2015-10-27 17:12:55.668912, 500
2015-10-27 17:12:55.668978, 498
2015-10-27 17:12:55.684791, 497
2015-10-27 17:12:55.684882, 493
2015-10-27 17:12:55.684947, 488
2015-10-27 17:12:55.700804, 484
2015-10-27 17:12:55.700896, 481
2015-10-27 17:12:55.700962, 477
2015-10-27 17:12:55.716858, 476
2015-10-27 17:12:55.716957, 478
2015-10-27 17:12:55.717023, 481
2015-10-27 17:12:55.732790, 481
2015-10-27 17:12:55.732902, 481
2015-10-27 17:12:55.732986, 483
2015-10-27 17:12:55.748882, 484
2015-10-27 17:12:55.749038, 483
2015-10-27 17:12:55.749138, 482
2015-10-27 17:12:55.764575, 482
2015-10-27 17:12:55.764670, 486
2015-10-27 17:12:55.764728, 517
2015-10-27 17:12:55.780533, 612
2015-10-27 17:12:55.780611, 767
2015-10-27 17:12:55.780657, 892
2015-10-27 17:12:55.796519, 979
2015-10-27 17:12:55.796598, 994
2015-10-27 17:12:55.796644, 984
2015-10-27 17:12:55.796688, 814
2015-10-27 17:12:55.812632, 457
2015-10-27 17:12:55.812731, 219
2015-10-27 17:12:55.812808, 200
2015-10-27 17:12:55.828697, 260
2015-10-27 17:12:55.828761, 313
2015-10-27 17:12:55.828807, 354
2015-10-27 17:12:55.844608, 397
2015-10-27 17:12:55.844699, 439
2015-10-27 17:12:55.844765, 464
2015-10-27 17:12:55.860561, 477
2015-10-27 17:12:55.860627, 484
2015-10-27 17:12:55.860672, 490
2015-10-27 17:12:55.877544, 495
2015-10-27 17:12:55.877699, 500
2015-10-27 17:12:55.877833, 503
2015-10-27 17:12:55.892570, 508
2015-10-27 17:12:55.892630, 513
2015-10-27 17:12:55.892671, 517
2015-10-27 17:12:55.909222, 519
2015-10-27 17:12:55.909306, 520
2015-10-27 17:12:55.909372, 522
2015-10-27 17:12:55.925789, 523
2015-10-27 17:12:55.925904, 527
2015-10-27 17:12:55.925972, 531
2015-10-27 17:12:55.940591, 538
2015-10-27 17:12:55.940681, 547
2015-10-27 17:12:55.940762, 553
2015-10-27 17:12:55.956462, 557
2015-10-27 17:12:55.956537, 562
2015-10-27 17:12:55.956589, 567
2015-10-27 17:12:55.972474, 573
2015-10-27 17:12:55.972559, 581
2015-10-27 17:12:55.972624, 591
2015-10-27 17:12:55.988468, 602
2015-10-27 17:12:55.988600, 612
2015-10-27 17:12:55.988665, 622
2015-10-27 17:12:56.004400, 635
2015-10-27 17:12:56.004509, 647
2015-10-27 17:12:56.004583, 657
2015-10-27 17:12:56.020407, 663
2015-10-27 17:12:56.020517, 666
2015-10-27 17:12:56.020596, 667
2015-10-27 17:12:56.036415, 669
2015-10-27 17:12:56.036498, 668
2015-10-27 17:12:56.036544, 663
2015-10-27 17:12:56.036583, 655
2015-10-27 17:12:56.053568, 646
2015-10-27 17:12:56.053654, 632
2015-10-27 17:12:56.053718, 611
2015-10-27 17:12:56.068447, 589
2015-10-27 17:12:56.068535, 566
2015-10-27 17:12:56.068610, 543
2015-10-27 17:12:56.084443, 522
2015-10-27 17:12:56.084529, 504
2015-10-27 17:12:56.084597, 489
2015-10-27 17:12:56.100425, 477
2015-10-27 17:12:56.100503, 467
2015-10-27 17:12:56.100559, 458
2015-10-27 17:12:56.116436, 451
2015-10-27 17:12:56.116561, 446
2015-10-27 17:12:56.116608, 444
2015-10-27 17:12:56.134852, 443
2015-10-27 17:12:56.134932, 443
2015-10-27 17:12:56.134995, 443
2015-10-27 17:12:56.148428, 442
2015-10-27 17:12:56.148524, 441
2015-10-27 17:12:56.148597, 439
2015-10-27 17:12:56.164404, 439
2015-10-27 17:12:56.164497, 442
2015-10-27 17:12:56.164571, 445
2015-10-27 17:12:56.181584, 448
2015-10-27 17:12:56.181679, 449
2015-10-27 17:12:56.181756, 452
2015-10-27 17:12:56.196413, 451
2015-10-27 17:12:56.196469, 449
2015-10-27 17:12:56.196507, 452
2015-10-27 17:12:56.212384, 452
2015-10-27 17:12:56.212477, 451
2015-10-27 17:12:56.212546, 452
2015-10-27 17:12:56.228375, 454
2015-10-27 17:12:56.228470, 454
2015-10-27 17:12:56.228539, 452
2015-10-27 17:12:56.244420, 453
2015-10-27 17:12:56.244527, 454
2015-10-27 17:12:56.244594, 454
2015-10-27 17:12:56.260379, 454
2015-10-27 17:12:56.260480, 456
2015-10-27 17:12:56.260546, 455
2015-10-27 17:12:56.276358, 457
2015-10-27 17:12:56.276475, 457
2015-10-27 17:12:56.276551, 458
2015-10-27 17:12:56.292436, 456
2015-10-27 17:12:56.292546, 455
2015-10-27 17:12:56.292612, 456
2015-10-27 17:12:56.292675, 456
2015-10-27 17:12:56.308772, 453
2015-10-27 17:12:56.308878, 454
2015-10-27 17:12:56.309041, 456
2015-10-27 17:12:56.324382, 456
2015-10-27 17:12:56.324464, 457
2015-10-27 17:12:56.324532, 457
2015-10-27 17:12:56.340460, 456
2015-10-27 17:12:56.340567, 458
2015-10-27 17:12:56.340645, 462
2015-10-27 17:12:56.356378, 464
2015-10-27 17:12:56.356464, 464
2015-10-27 17:12:56.356533, 464
2015-10-27 17:12:56.372373, 462
2015-10-27 17:12:56.372468, 464
2015-10-27 17:12:56.372537, 465
2015-10-27 17:12:56.388387, 465
2015-10-27 17:12:56.388466, 466
2015-10-27 17:12:56.388525, 466
2015-10-27 17:12:56.404337, 467
2015-10-27 17:12:56.404396, 470
2015-10-27 17:12:56.404434, 472
2015-10-27 17:12:56.420484, 474
2015-10-27 17:12:56.420578, 476
2015-10-27 17:12:56.420644, 475
2015-10-27 17:12:56.436894, 474
2015-10-27 17:12:56.436950, 473
2015-10-27 17:12:56.436987, 472
2015-10-27 17:12:56.452301, 473
2015-10-27 17:12:56.452358, 476
2015-10-27 17:12:56.452395, 478
2015-10-27 17:12:56.468311, 479
2015-10-27 17:12:56.468399, 479
2015-10-27 17:12:56.468466, 478
2015-10-27 17:12:56.484273, 477
2015-10-27 17:12:56.484330, 478
2015-10-27 17:12:56.484367, 481
2015-10-27 17:12:56.500288, 483
2015-10-27 17:12:56.500355, 486
2015-10-27 17:12:56.500393, 489
2015-10-27 17:12:56.516480, 489
2015-10-27 17:12:56.516668, 489
2015-10-27 17:12:56.516797, 489
2015-10-27 17:12:56.532338, 497
2015-10-27 17:12:56.532445, 508
2015-10-27 17:12:56.532530, 513
2015-10-27 17:12:56.532597, 512
2015-10-27 17:12:56.548429, 507
2015-10-27 17:12:56.548542, 503
2015-10-27 17:12:56.548636, 501
2015-10-27 17:12:56.564393, 503
2015-10-27 17:12:56.564520, 502
2015-10-27 17:12:56.564621, 497
2015-10-27 17:12:56.580536, 492
2015-10-27 17:12:56.580658, 488
2015-10-27 17:12:56.580726, 484
2015-10-27 17:12:56.596338, 483
2015-10-27 17:12:56.596619, 483
2015-10-27 17:12:56.596690, 484
2015-10-27 17:12:56.612461, 486
2015-10-27 17:12:56.612554, 487
2015-10-27 17:12:56.612621, 486
2015-10-27 17:12:56.629641, 487
2015-10-27 17:12:56.629790, 490
2015-10-27 17:12:56.629860, 492
2015-10-27 17:12:56.644414, 492
2015-10-27 17:12:56.644504, 494
2015-10-27 17:12:56.644570, 516
2015-10-27 17:12:56.660407, 589
2015-10-27 17:12:56.660509, 735
2015-10-27 17:12:56.660574, 865
2015-10-27 17:12:56.676420, 960
2015-10-27 17:12:56.676511, 992
2015-10-27 17:12:56.676578, 978
2015-10-27 17:12:56.692282, 823
2015-10-27 17:12:56.692377, 497
2015-10-27 17:12:56.692443, 226
2015-10-27 17:12:56.708385, 177
2015-10-27 17:12:56.708579, 235
2015-10-27 17:12:56.708726, 300
2015-10-27 17:12:56.724296, 346
2015-10-27 17:12:56.724420, 391
2015-10-27 17:12:56.724525, 436
2015-10-27 17:12:56.740208, 463
2015-10-27 17:12:56.740317, 479
2015-10-27 17:12:56.740392, 487
2015-10-27 17:12:56.756219, 492
2015-10-27 17:12:56.756325, 496
2015-10-27 17:12:56.756398, 499
2015-10-27 17:12:56.772298, 502
2015-10-27 17:12:56.772429, 506
2015-10-27 17:12:56.772508, 511
2015-10-27 17:12:56.772578, 514
2015-10-27 17:12:56.788279, 517
2015-10-27 17:12:56.788357, 521
2015-10-27 17:12:56.788418, 526
2015-10-27 17:12:56.804288, 530
2015-10-27 17:12:56.804381, 534
2015-10-27 17:12:56.804453, 538
2015-10-27 17:12:56.820323, 542
2015-10-27 17:12:56.820422, 546
2015-10-27 17:12:56.820501, 552
2015-10-27 17:12:56.836384, 558
2015-10-27 17:12:56.836438, 564
2015-10-27 17:12:56.836475, 572
2015-10-27 17:12:56.852387, 580
2015-10-27 17:12:56.852458, 588
2015-10-27 17:12:56.852501, 598
2015-10-27 17:12:56.868367, 608
2015-10-27 17:12:56.868522, 618
2015-10-27 17:12:56.868651, 627
2015-10-27 17:12:56.884248, 637
2015-10-27 17:12:56.884375, 648
2015-10-27 17:12:56.884468, 656
2015-10-27 17:12:56.900198, 662
2015-10-27 17:12:56.900296, 666
2015-10-27 17:12:56.900376, 669
2015-10-27 17:12:56.916256, 668
2015-10-27 17:12:56.916309, 667
2015-10-27 17:12:56.916347, 665
2015-10-27 17:12:56.932227, 659
2015-10-27 17:12:56.932287, 650
2015-10-27 17:12:56.932329, 636
2015-10-27 17:12:56.948257, 617
2015-10-27 17:12:56.948353, 593
2015-10-27 17:12:56.948419, 570
2015-10-27 17:12:56.964456, 547
2015-10-27 17:12:56.964552, 527
2015-10-27 17:12:56.964618, 507
2015-10-27 17:12:56.980177, 489
2015-10-27 17:12:56.980290, 474
2015-10-27 17:12:56.980345, 464
2015-10-27 17:12:56.996112, 459
2015-10-27 17:12:56.996179, 455
2015-10-27 17:12:56.996217, 450
2015-10-27 17:12:57.012143, 448
2015-10-27 17:12:57.012206, 449
2015-10-27 17:12:57.012244, 449
2015-10-27 17:12:57.012280, 449
2015-10-27 17:12:57.028346, 450
2015-10-27 17:12:57.028569, 450
2015-10-27 17:12:57.028658, 451
2015-10-27 17:12:57.044901, 451
2015-10-27 17:12:57.044993, 453
2015-10-27 17:12:57.045078, 454
2015-10-27 17:12:57.060202, 456
2015-10-27 17:12:57.060292, 456
2015-10-27 17:12:57.060358, 456
2015-10-27 17:12:57.076230, 458
2015-10-27 17:12:57.076333, 458
2015-10-27 17:12:57.076409, 459
2015-10-27 17:12:57.092356, 460
2015-10-27 17:12:57.092456, 461
2015-10-27 17:12:57.092502, 461
2015-10-27 17:12:57.108259, 462
2015-10-27 17:12:57.108347, 460
2015-10-27 17:12:57.108412, 461
2015-10-27 17:12:57.124280, 462
2015-10-27 17:12:57.124373, 464
2015-10-27 17:12:57.124441, 464
2015-10-27 17:12:57.140345, 462
2015-10-27 17:12:57.140463, 460
2015-10-27 17:12:57.140529, 460
2015-10-27 17:12:57.156474, 461
2015-10-27 17:12:57.156564, 460
2015-10-27 17:12:57.156630, 459
2015-10-27 17:12:57.172180, 460
2015-10-27 17:12:57.172270, 461
2015-10-27 17:12:57.172336, 462
2015-10-27 17:12:57.188339, 463
2015-10-27 17:12:57.188435, 463
2015-10-27 17:12:57.188545, 460
2015-10-27 17:12:57.204378, 460
2015-10-27 17:12:57.204473, 462
2015-10-27 17:12:57.204538, 462
2015-10-27 17:12:57.220504, 463
2015-10-27 17:12:57.220734, 466
2015-10-27 17:12:57.220813, 467
2015-10-27 17:12:57.236198, 468
2015-10-27 17:12:57.236307, 467
2015-10-27 17:12:57.236374, 465
2015-10-27 17:12:57.252313, 466
2015-10-27 17:12:57.252424, 468
2015-10-27 17:12:57.252551, 468
2015-10-27 17:12:57.268428, 467
2015-10-27 17:12:57.268540, 468
2015-10-27 17:12:57.268612, 470
2015-10-27 17:12:57.268675, 471
2015-10-27 17:12:57.284365, 471
2015-10-27 17:12:57.284453, 472
2015-10-27 17:12:57.284537, 473
2015-10-27 17:12:57.300356, 474
2015-10-27 17:12:57.300445, 474
2015-10-27 17:12:57.300511, 476
2015-10-27 17:12:57.316494, 478
2015-10-27 17:12:57.316655, 480
2015-10-27 17:12:57.316743, 481
2015-10-27 17:12:57.332175, 481
2015-10-27 17:12:57.332263, 479
2015-10-27 17:12:57.332329, 480
2015-10-27 17:12:57.348527, 481
2015-10-27 17:12:57.348620, 482
2015-10-27 17:12:57.348686, 484
2015-10-27 17:12:57.364435, 485
2015-10-27 17:12:57.364525, 484
2015-10-27 17:12:57.364590, 484
2015-10-27 17:12:57.380184, 487
2015-10-27 17:12:57.380288, 487
2015-10-27 17:12:57.380354, 485
2015-10-27 17:12:57.396255, 485
2015-10-27 17:12:57.396348, 488
2015-10-27 17:12:57.396414, 492
2015-10-27 17:12:57.412167, 495
2015-10-27 17:12:57.412320, 496
2015-10-27 17:12:57.412385, 494
2015-10-27 17:12:57.428370, 497
2015-10-27 17:12:57.428466, 510
2015-10-27 17:12:57.428533, 524
2015-10-27 17:12:57.444354, 529
2015-10-27 17:12:57.444474, 525
2015-10-27 17:12:57.444540, 519
2015-10-27 17:12:57.460414, 515
2015-10-27 17:12:57.460538, 510
2015-10-27 17:12:57.460605, 508
2015-10-27 17:12:57.476304, 506
2015-10-27 17:12:57.476460, 501
2015-10-27 17:12:57.476527, 497
2015-10-27 17:12:57.492299, 493
2015-10-27 17:12:57.492462, 490
2015-10-27 17:12:57.492529, 489
2015-10-27 17:12:57.508301, 491
2015-10-27 17:12:57.508462, 494
2015-10-27 17:12:57.508529, 494
2015-10-27 17:12:57.508592, 492
2015-10-27 17:12:57.524384, 492
2015-10-27 17:12:57.524476, 493
2015-10-27 17:12:57.524541, 493
2015-10-27 17:12:57.540111, 493
2015-10-27 17:12:57.540202, 493
2015-10-27 17:12:57.540268, 497
2015-10-27 17:12:57.556372, 521
2015-10-27 17:12:57.556462, 595
2015-10-27 17:12:57.556527, 745
2015-10-27 17:12:57.572546, 879
2015-10-27 17:12:57.572671, 967
2015-10-27 17:12:57.572764, 988
2015-10-27 17:12:57.588087, 948
2015-10-27 17:12:57.588174, 764
2015-10-27 17:12:57.588270, 440
2015-10-27 17:12:57.604098, 203
2015-10-27 17:12:57.604189, 177
2015-10-27 17:12:57.604358, 238
2015-10-27 17:12:57.620108, 299
2015-10-27 17:12:57.620203, 344
2015-10-27 17:12:57.620269, 395
2015-10-27 17:12:57.636064, 446
2015-10-27 17:12:57.636194, 476
2015-10-27 17:12:57.636264, 490
2015-10-27 17:12:57.652220, 500
2015-10-27 17:12:57.652311, 505
2015-10-27 17:12:57.652377, 509
2015-10-27 17:12:57.667999, 512
2015-10-27 17:12:57.668054, 516
2015-10-27 17:12:57.668092, 520
2015-10-27 17:12:57.684252, 523
2015-10-27 17:12:57.684348, 527
2015-10-27 17:12:57.684414, 530
2015-10-27 17:12:57.700230, 534
2015-10-27 17:12:57.700323, 539
2015-10-27 17:12:57.700389, 543
2015-10-27 17:12:57.716162, 548
2015-10-27 17:12:57.716270, 552
2015-10-27 17:12:57.716335, 554
2015-10-27 17:12:57.732265, 558
2015-10-27 17:12:57.732440, 563
2015-10-27 17:12:57.732605, 571
2015-10-27 17:12:57.748092, 577
2015-10-27 17:12:57.748203, 583
2015-10-27 17:12:57.748270, 589
2015-10-27 17:12:57.748431, 597
2015-10-27 17:12:57.764357, 608
2015-10-27 17:12:57.764447, 615
2015-10-27 17:12:57.764514, 623
2015-10-27 17:12:57.780317, 635
2015-10-27 17:12:57.780407, 644
2015-10-27 17:12:57.780473, 654
2015-10-27 17:12:57.796233, 663
2015-10-27 17:12:57.796336, 669
2015-10-27 17:12:57.796402, 672
2015-10-27 17:12:57.812296, 673
2015-10-27 17:12:57.812412, 674
2015-10-27 17:12:57.812521, 671
2015-10-27 17:12:57.828306, 668
2015-10-27 17:12:57.828445, 663
2015-10-27 17:12:57.828512, 655
2015-10-27 17:12:57.844043, 643
2015-10-27 17:12:57.844151, 623
2015-10-27 17:12:57.844230, 600
2015-10-27 17:12:57.860806, 578
2015-10-27 17:12:57.860897, 555
2015-10-27 17:12:57.860962, 535
2015-10-27 17:12:57.876233, 517
2015-10-27 17:12:57.876328, 502
2015-10-27 17:12:57.876393, 489
2015-10-27 17:12:57.892115, 478
2015-10-27 17:12:57.892208, 469
2015-10-27 17:12:57.892274, 463
2015-10-27 17:12:57.908218, 456
2015-10-27 17:12:57.908351, 452
2015-10-27 17:12:57.908417, 449
2015-10-27 17:12:57.924197, 447
2015-10-27 17:12:57.924293, 446
2015-10-27 17:12:57.924365, 447
2015-10-27 17:12:57.940230, 447
2015-10-27 17:12:57.940326, 447
2015-10-27 17:12:57.940452, 448
2015-10-27 17:12:57.955991, 448
2015-10-27 17:12:57.956104, 449
2015-10-27 17:12:57.956173, 451
2015-10-27 17:12:57.972067, 452
2015-10-27 17:12:57.972178, 454
2015-10-27 17:12:57.972245, 454
2015-10-27 17:12:57.987947, 454
2015-10-27 17:12:57.988038, 455
2015-10-27 17:12:57.988093, 456
2015-10-27 17:12:57.988145, 458
2015-10-27 17:12:58.003965, 459
2015-10-27 17:12:58.004046, 459
2015-10-27 17:12:58.004087, 458
2015-10-27 17:12:58.019925, 459
2015-10-27 17:12:58.019998, 461
2015-10-27 17:12:58.020111, 461
2015-10-27 17:12:58.035874, 460
2015-10-27 17:12:58.035929, 461
2015-10-27 17:12:58.035966, 462
2015-10-27 17:12:58.051944, 462
2015-10-27 17:12:58.051999, 462
2015-10-27 17:12:58.052035, 461
2015-10-27 17:12:58.067914, 461
2015-10-27 17:12:58.067969, 462
2015-10-27 17:12:58.068006, 462
2015-10-27 17:12:58.083909, 460
2015-10-27 17:12:58.083965, 459
2015-10-27 17:12:58.084002, 460
2015-10-27 17:12:58.099923, 460
2015-10-27 17:12:58.100011, 461
2015-10-27 17:12:58.100071, 462
2015-10-27 17:12:58.115901, 463
2015-10-27 17:12:58.116002, 465
2015-10-27 17:12:58.116079, 464
2015-10-27 17:12:58.131850, 462
2015-10-27 17:12:58.131948, 463
2015-10-27 17:12:58.132019, 467
2015-10-27 17:12:58.149579, 467
2015-10-27 17:12:58.149715, 465
2015-10-27 17:12:58.149785, 465
2015-10-27 17:12:58.164145, 467
2015-10-27 17:12:58.164247, 467
2015-10-27 17:12:58.164314, 465
2015-10-27 17:12:58.179908, 464
2015-10-27 17:12:58.180089, 465
2015-10-27 17:12:58.180273, 466
2015-10-27 17:12:58.198540, 469
2015-10-27 17:12:58.201527, 470
2015-10-27 17:12:58.201674, 469
2015-10-27 17:12:58.212440, 468
2015-10-27 17:12:58.216986, 467
2015-10-27 17:12:58.217407, 466
2015-10-27 17:12:58.229784, 469
2015-10-27 17:12:58.231594, 470
2015-10-27 17:12:58.232207, 470
2015-10-27 17:12:58.243944, 469
2015-10-27 17:12:58.244074, 471
2015-10-27 17:12:58.244151, 473
2015-10-27 17:12:58.244216, 473
2015-10-27 17:12:58.259991, 471
2015-10-27 17:12:58.263300, 472
2015-10-27 17:12:58.263388, 474
2015-10-27 17:12:58.276653, 477
2015-10-27 17:12:58.276747, 478
2015-10-27 17:12:58.276819, 480
2015-10-27 17:12:58.291916, 483
2015-10-27 17:12:58.292005, 487
2015-10-27 17:12:58.292069, 488
2015-10-27 17:12:58.308687, 490
2015-10-27 17:12:58.308865, 491
2015-10-27 17:12:58.308971, 490
2015-10-27 17:12:58.325278, 493
2015-10-27 17:12:58.325374, 504
2015-10-27 17:12:58.325446, 515
2015-10-27 17:12:58.339899, 519
2015-10-27 17:12:58.339999, 516
2015-10-27 17:12:58.340068, 510
2015-10-27 17:12:58.355757, 505
2015-10-27 17:12:58.355848, 503
2015-10-27 17:12:58.355914, 504
2015-10-27 17:12:58.372019, 502
2015-10-27 17:12:58.372109, 497
2015-10-27 17:12:58.372174, 490
2015-10-27 17:12:58.387990, 486
2015-10-27 17:12:58.388119, 482
2015-10-27 17:12:58.388195, 481
2015-10-27 17:12:58.403851, 482
2015-10-27 17:12:58.403945, 486
2015-10-27 17:12:58.404012, 488
2015-10-27 17:12:58.419829, 488
2015-10-27 17:12:58.419923, 488
2015-10-27 17:12:58.419989, 488
2015-10-27 17:12:58.435821, 489
2015-10-27 17:12:58.435931, 491
2015-10-27 17:12:58.435988, 491
2015-10-27 17:12:58.451749, 496
2015-10-27 17:12:58.451868, 518
2015-10-27 17:12:58.451936, 584
2015-10-27 17:12:58.467786, 726
2015-10-27 17:12:58.467908, 859
2015-10-27 17:12:58.467958, 952
2015-10-27 17:12:58.483808, 986
2015-10-27 17:12:58.483889, 948
2015-10-27 17:12:58.483937, 770
2015-10-27 17:12:58.483983, 449
2015-10-27 17:12:58.499941, 200
2015-10-27 17:12:58.500032, 166
2015-10-27 17:12:58.500097, 224
2015-10-27 17:12:58.515830, 286
2015-10-27 17:12:58.515976, 333
2015-10-27 17:12:58.516097, 387
2015-10-27 17:12:58.531717, 438
2015-10-27 17:12:58.531780, 467
2015-10-27 17:12:58.531825, 482
2015-10-27 17:12:58.548079, 491
2015-10-27 17:12:58.548187, 495
2015-10-27 17:12:58.548278, 500
2015-10-27 17:12:58.563730, 504
2015-10-27 17:12:58.563821, 509
2015-10-27 17:12:58.563893, 512
2015-10-27 17:12:58.579700, 516
2015-10-27 17:12:58.579793, 519
2015-10-27 17:12:58.579866, 523
2015-10-27 17:12:58.595782, 528
2015-10-27 17:12:58.595897, 531
2015-10-27 17:12:58.596000, 534
2015-10-27 17:12:58.611671, 539
2015-10-27 17:12:58.611737, 544
2015-10-27 17:12:58.611783, 548
2015-10-27 17:12:58.627761, 553
2015-10-27 17:12:58.627865, 558
2015-10-27 17:12:58.627944, 564
2015-10-27 17:12:58.643704, 570
2015-10-27 17:12:58.643798, 576
2015-10-27 17:12:58.643871, 584
2015-10-27 17:12:58.659703, 592
2015-10-27 17:12:58.659761, 600
2015-10-27 17:12:58.659798, 609
2015-10-27 17:12:58.675723, 619
2015-10-27 17:12:58.675910, 630
2015-10-27 17:12:58.676008, 642
2015-10-27 17:12:58.691668, 650
2015-10-27 17:12:58.691777, 658
2015-10-27 17:12:58.691844, 663
2015-10-27 17:12:58.707829, 666
2015-10-27 17:12:58.707936, 668
2015-10-27 17:12:58.708003, 668
2015-10-27 17:12:58.726440, 668
2015-10-27 17:12:58.726534, 668
2015-10-27 17:12:58.726589, 663
2015-10-27 17:12:58.726640, 654
2015-10-27 17:12:58.739694, 640
2015-10-27 17:12:58.739823, 623
2015-10-27 17:12:58.739921, 601
2015-10-27 17:12:58.755721, 577
2015-10-27 17:12:58.755842, 554
2015-10-27 17:12:58.755937, 531
2015-10-27 17:12:58.771821, 513
2015-10-27 17:12:58.771909, 498
2015-10-27 17:12:58.771973, 484
2015-10-27 17:12:58.787642, 473
2015-10-27 17:12:58.787729, 464
2015-10-27 17:12:58.787799, 458
2015-10-27 17:12:58.803918, 453
2015-10-27 17:12:58.804184, 448
2015-10-27 17:12:58.804264, 447
2015-10-27 17:12:58.819615, 447
2015-10-27 17:12:58.819771, 447
2015-10-27 17:12:58.819877, 446
2015-10-27 17:12:58.838838, 446
2015-10-27 17:12:58.838939, 446
2015-10-27 17:12:58.839015, 446
2015-10-27 17:12:58.852195, 446
2015-10-27 17:12:58.852289, 448
2015-10-27 17:12:58.852354, 451
2015-10-27 17:12:58.868924, 453
2015-10-27 17:12:58.869083, 455
2015-10-27 17:12:58.869151, 454
2015-10-27 17:12:58.883627, 454
2015-10-27 17:12:58.883723, 454
2015-10-27 17:12:58.883799, 454
2015-10-27 17:12:58.899602, 455
2015-10-27 17:12:58.899695, 458
2015-10-27 17:12:58.899787, 460
2015-10-27 17:12:58.915570, 463
2015-10-27 17:12:58.915666, 463
2015-10-27 17:12:58.915742, 464
2015-10-27 17:12:58.932117, 463
2015-10-27 17:12:58.932291, 463
2015-10-27 17:12:58.932377, 464
2015-10-27 17:12:58.950270, 463
2015-10-27 17:12:58.950379, 463
2015-10-27 17:12:58.950456, 464
2015-10-27 17:12:58.963541, 463
2015-10-27 17:12:58.963608, 461
2015-10-27 17:12:58.963647, 460
2015-10-27 17:12:58.963683, 459
2015-10-27 17:12:58.979554, 459
2015-10-27 17:12:58.979649, 459
2015-10-27 17:12:58.979697, 459
2015-10-27 17:12:58.995607, 459
2015-10-27 17:12:58.995711, 458
2015-10-27 17:12:58.995797, 458
2015-10-27 17:12:59.012451, 457
2015-10-27 17:12:59.012545, 456
2015-10-27 17:12:59.012620, 460
2015-10-27 17:12:59.027537, 461
2015-10-27 17:12:59.027589, 461
2015-10-27 17:12:59.027627, 460
2015-10-27 17:12:59.043715, 461
2015-10-27 17:12:59.043808, 462
2015-10-27 17:12:59.043883, 464
2015-10-27 17:12:59.059553, 465
2015-10-27 17:12:59.059607, 465
2015-10-27 17:12:59.059644, 463
2015-10-27 17:12:59.075578, 465
2015-10-27 17:12:59.075645, 466
2015-10-27 17:12:59.075690, 468
2015-10-27 17:12:59.091559, 468
2015-10-27 17:12:59.091616, 470
2015-10-27 17:12:59.091654, 470
2015-10-27 17:12:59.107581, 471
2015-10-27 17:12:59.107668, 471
2015-10-27 17:12:59.107727, 472
2015-10-27 17:12:59.136939, 474
2015-10-27 17:12:59.137074, 474
2015-10-27 17:12:59.137141, 475
2015-10-27 17:12:59.139486, 477
2015-10-27 17:12:59.139604, 478
2015-10-27 17:12:59.139668, 478
2015-10-27 17:12:59.156220, 478
2015-10-27 17:12:59.156343, 479
2015-10-27 17:12:59.156443, 479
2015-10-27 17:12:59.171542, 479
2015-10-27 17:12:59.171653, 479
2015-10-27 17:12:59.171724, 478
2015-10-27 17:12:59.187585, 481
2015-10-27 17:12:59.187719, 482
2015-10-27 17:12:59.187810, 484
2015-10-27 17:12:59.206193, 486
2015-10-27 17:12:59.206314, 487
2015-10-27 17:12:59.206394, 491
2015-10-27 17:12:59.219631, 493
2015-10-27 17:12:59.219838, 494
2015-10-27 17:12:59.219937, 496
2015-10-27 17:12:59.220051, 505
2015-10-27 17:12:59.235565, 517
2015-10-27 17:12:59.235648, 526
2015-10-27 17:12:59.235723, 524
2015-10-27 17:12:59.251584, 518
2015-10-27 17:12:59.251668, 512
2015-10-27 17:12:59.251736, 508
2015-10-27 17:12:59.267677, 509
2015-10-27 17:12:59.267756, 507
2015-10-27 17:12:59.267816, 502
2015-10-27 17:12:59.283623, 497
2015-10-27 17:12:59.283868, 492
2015-10-27 17:12:59.284325, 487
2015-10-27 17:12:59.300112, 485
2015-10-27 17:12:59.300198, 484
2015-10-27 17:12:59.300267, 485
2015-10-27 17:12:59.316663, 486
2015-10-27 17:12:59.316747, 485
2015-10-27 17:12:59.316811, 486
2015-10-27 17:12:59.331524, 489
2015-10-27 17:12:59.331607, 491
2015-10-27 17:12:59.331672, 493
2015-10-27 17:12:59.347872, 493
2015-10-27 17:12:59.347963, 495
2015-10-27 17:12:59.348037, 508
2015-10-27 17:12:59.363528, 557
2015-10-27 17:12:59.363612, 681
2015-10-27 17:12:59.363678, 828
2015-10-27 17:12:59.379503, 932
2015-10-27 17:12:59.379590, 985
2015-10-27 17:12:59.379654, 972
2015-10-27 17:12:59.397127, 846
2015-10-27 17:12:59.397212, 563
2015-10-27 17:12:59.397276, 258
2015-10-27 17:12:59.411596, 166
2015-10-27 17:12:59.411691, 210
2015-10-27 17:12:59.411756, 277
2015-10-27 17:12:59.427458, 326
2015-10-27 17:12:59.427565, 376
2015-10-27 17:12:59.427635, 429
2015-10-27 17:12:59.444305, 464
2015-10-27 17:12:59.444407, 483
2015-10-27 17:12:59.444473, 493
2015-10-27 17:12:59.461326, 498
2015-10-27 17:12:59.461441, 503
2015-10-27 17:12:59.461510, 507
2015-10-27 17:12:59.461572, 513
2015-10-27 17:12:59.476136, 519
2015-10-27 17:12:59.476229, 524
2015-10-27 17:12:59.476305, 527
2015-10-27 17:12:59.491512, 529
2015-10-27 17:12:59.491605, 530
2015-10-27 17:12:59.491681, 533
2015-10-27 17:12:59.507518, 536
2015-10-27 17:12:59.507608, 540
2015-10-27 17:12:59.507679, 546
2015-10-27 17:12:59.523480, 550
2015-10-27 17:12:59.523569, 554
2015-10-27 17:12:59.523638, 559
2015-10-27 17:12:59.539486, 565
2015-10-27 17:12:59.539573, 570
2015-10-27 17:12:59.539642, 576
2015-10-27 17:12:59.555486, 584
2015-10-27 17:12:59.555572, 591
2015-10-27 17:12:59.555640, 600
2015-10-27 17:12:59.571481, 612
2015-10-27 17:12:59.571576, 624
2015-10-27 17:12:59.571644, 634
2015-10-27 17:12:59.588842, 643
2015-10-27 17:12:59.588938, 650
2015-10-27 17:12:59.589007, 659
2015-10-27 17:12:59.604429, 668
2015-10-27 17:12:59.604504, 671
2015-10-27 17:12:59.604556, 671
2015-10-27 17:12:59.619686, 672
2015-10-27 17:12:59.619773, 674
2015-10-27 17:12:59.619813, 674
2015-10-27 17:12:59.635868, 670
2015-10-27 17:12:59.635975, 660
2015-10-27 17:12:59.636053, 648
2015-10-27 17:12:59.651518, 633
2015-10-27 17:12:59.651609, 613
2015-10-27 17:12:59.651650, 591
2015-10-27 17:12:59.667423, 570
2015-10-27 17:12:59.667534, 548
2015-10-27 17:12:59.667604, 525
2015-10-27 17:12:59.683377, 506
2015-10-27 17:12:59.683443, 490
2015-10-27 17:12:59.683481, 477
2015-10-27 17:12:59.699394, 467
2015-10-27 17:12:59.699552, 460
2015-10-27 17:12:59.699628, 455
2015-10-27 17:12:59.699702, 452
2015-10-27 17:12:59.715460, 451
2015-10-27 17:12:59.715548, 449
2015-10-27 17:12:59.715616, 450
2015-10-27 17:12:59.731449, 452
2015-10-27 17:12:59.731538, 452
2015-10-27 17:12:59.731610, 452
2015-10-27 17:12:59.747455, 450
2015-10-27 17:12:59.747538, 450
2015-10-27 17:12:59.747604, 449
2015-10-27 17:12:59.764043, 451
2015-10-27 17:12:59.764129, 452
2015-10-27 17:12:59.764268, 452
2015-10-27 17:12:59.786440, 455
2015-10-27 17:12:59.786530, 457
2015-10-27 17:12:59.786602, 456
2015-10-27 17:12:59.803665, 456
2015-10-27 17:12:59.803770, 456
2015-10-27 17:12:59.803845, 456
2015-10-27 17:12:59.811426, 458
2015-10-27 17:12:59.811525, 459
2015-10-27 17:12:59.811600, 460
2015-10-27 17:12:59.827405, 461
2015-10-27 17:12:59.827493, 459
2015-10-27 17:12:59.827559, 460
2015-10-27 17:12:59.843482, 464
2015-10-27 17:12:59.843571, 465
2015-10-27 17:12:59.843639, 464
2015-10-27 17:12:59.859407, 462
2015-10-27 17:12:59.859509, 461
2015-10-27 17:12:59.859585, 459
2015-10-27 17:12:59.877836, 458
2015-10-27 17:12:59.877941, 457
2015-10-27 17:12:59.878016, 459
2015-10-27 17:12:59.891450, 460
2015-10-27 17:12:59.891554, 460
2015-10-27 17:12:59.891631, 459
2015-10-27 17:12:59.907396, 458
2015-10-27 17:12:59.907533, 459
2015-10-27 17:12:59.907606, 460
2015-10-27 17:12:59.923372, 460
2015-10-27 17:12:59.923440, 462
2015-10-27 17:12:59.923478, 464
2015-10-27 17:12:59.939392, 463
2015-10-27 17:12:59.939541, 462
2015-10-27 17:12:59.939753, 462
2015-10-27 17:12:59.939829, 462
2015-10-27 17:12:59.955433, 461
2015-10-27 17:12:59.955523, 462
2015-10-27 17:12:59.955605, 462
2015-10-27 17:12:59.973402, 463
2015-10-27 17:12:59.973488, 462
2015-10-27 17:12:59.973556, 462
2015-10-27 17:12:59.987996, 463
2015-10-27 17:12:59.988097, 467
2015-10-27 17:12:59.988175, 469
2015-10-27 17:13:00.003788, 470
2015-10-27 17:13:00.003929, 471
2015-10-27 17:13:00.004064, 473
2015-10-27 17:13:00.031160, 474
2015-10-27 17:13:00.031248, 471
2015-10-27 17:13:00.031312, 472
2015-10-27 17:13:00.035360, 473
2015-10-27 17:13:00.035450, 473
2015-10-27 17:13:00.035521, 474
2015-10-27 17:13:00.052561, 474
2015-10-27 17:13:00.053113, 475
2015-10-27 17:13:00.053194, 475
2015-10-27 17:13:00.067330, 476
2015-10-27 17:13:00.067424, 479
2015-10-27 17:13:00.067492, 482
2015-10-27 17:13:00.083347, 485
2015-10-27 17:13:00.083435, 486
2015-10-27 17:13:00.083683, 487
2015-10-27 17:13:00.099308, 488
2015-10-27 17:13:00.099401, 489
2015-10-27 17:13:00.099478, 492
2015-10-27 17:13:00.115293, 502
2015-10-27 17:13:00.115390, 514
2015-10-27 17:13:00.115467, 518
2015-10-27 17:13:00.131319, 512
2015-10-27 17:13:00.131418, 504
2015-10-27 17:13:00.131485, 499
2015-10-27 17:13:00.147266, 498
2015-10-27 17:13:00.147365, 499
2015-10-27 17:13:00.147431, 499
2015-10-27 17:13:00.163260, 499
2015-10-27 17:13:00.163408, 494
2015-10-27 17:13:00.163474, 491
2015-10-27 17:13:00.179245, 488
2015-10-27 17:13:00.179378, 487
2015-10-27 17:13:00.179472, 486
2015-10-27 17:13:00.195229, 486
2015-10-27 17:13:00.195335, 485
2015-10-27 17:13:00.195407, 486
2015-10-27 17:13:00.195479, 489
2015-10-27 17:13:00.211338, 491
2015-10-27 17:13:00.211424, 491
2015-10-27 17:13:00.211489, 493
2015-10-27 17:13:00.227304, 492
2015-10-27 17:13:00.227389, 497
2015-10-27 17:13:00.227453, 525
2015-10-27 17:13:00.243318, 615
2015-10-27 17:13:00.243439, 778
2015-10-27 17:13:00.243514, 910
2015-10-27 17:13:00.259298, 988
2015-10-27 17:13:00.259380, 994
2015-10-27 17:13:00.259445, 974
2015-10-27 17:13:00.275283, 781
2015-10-27 17:13:00.275369, 419
2015-10-27 17:13:00.275433, 201
2015-10-27 17:13:00.291382, 201
2015-10-27 17:13:00.291480, 258
2015-10-27 17:13:00.291638, 308
2015-10-27 17:13:00.307275, 344
2015-10-27 17:13:00.307367, 391
2015-10-27 17:13:00.307434, 439
2015-10-27 17:13:00.323267, 469
2015-10-27 17:13:00.323359, 483
2015-10-27 17:13:00.323434, 491
2015-10-27 17:13:00.340156, 497
2015-10-27 17:13:00.340245, 504
2015-10-27 17:13:00.340305, 508
2015-10-27 17:13:00.355739, 511
2015-10-27 17:13:00.355850, 513
2015-10-27 17:13:00.355954, 516
2015-10-27 17:13:00.371407, 520
2015-10-27 17:13:00.371501, 523
2015-10-27 17:13:00.371567, 525
2015-10-27 17:13:00.387244, 531
2015-10-27 17:13:00.387369, 536
2015-10-27 17:13:00.387454, 540
2015-10-27 17:13:00.403246, 546
2015-10-27 17:13:00.403371, 549
2015-10-27 17:13:00.403449, 555
2015-10-27 17:13:00.419194, 560
2015-10-27 17:13:00.419312, 564
2015-10-27 17:13:00.419399, 569
2015-10-27 17:13:00.435191, 576
2015-10-27 17:13:00.435261, 585
2015-10-27 17:13:00.435300, 595
2015-10-27 17:13:00.435336, 604
2015-10-27 17:13:00.451268, 614
2015-10-27 17:13:00.451363, 625
2015-10-27 17:13:00.451440, 636
2015-10-27 17:13:00.467298, 644
2015-10-27 17:13:00.467479, 654
2015-10-27 17:13:00.467566, 664
2015-10-27 17:13:00.483228, 671
2015-10-27 17:13:00.483324, 673
2015-10-27 17:13:00.483397, 673
2015-10-27 17:13:00.499518, 672
2015-10-27 17:13:00.499604, 671
2015-10-27 17:13:00.499666, 666
2015-10-27 17:13:00.518186, 660
2015-10-27 17:13:00.518280, 649
2015-10-27 17:13:00.518346, 631
2015-10-27 17:13:00.531225, 610
2015-10-27 17:13:00.531310, 589
2015-10-27 17:13:00.531376, 569
2015-10-27 17:13:00.548315, 548
2015-10-27 17:13:00.548381, 525
2015-10-27 17:13:00.548420, 504
2015-10-27 17:13:00.563148, 486
2015-10-27 17:13:00.563203, 473
2015-10-27 17:13:00.563240, 464
2015-10-27 17:13:00.579182, 457
2015-10-27 17:13:00.579276, 453
2015-10-27 17:13:00.579348, 450
2015-10-27 17:13:00.595151, 445
2015-10-27 17:13:00.595206, 443
2015-10-27 17:13:00.595244, 442
2015-10-27 17:13:00.612489, 444
2015-10-27 17:13:00.612579, 446
2015-10-27 17:13:00.612653, 446
2015-10-27 17:13:00.627649, 447
2015-10-27 17:13:00.627818, 449
2015-10-27 17:13:00.628057, 451
2015-10-27 17:13:00.643166, 451
2015-10-27 17:13:00.643263, 451
2015-10-27 17:13:00.643327, 450
2015-10-27 17:13:00.659128, 451
2015-10-27 17:13:00.659239, 455
2015-10-27 17:13:00.659310, 458
2015-10-27 17:13:00.675870, 458
2015-10-27 17:13:00.677064, 456
2015-10-27 17:13:00.677148, 455
2015-10-27 17:13:00.677223, 457
2015-10-27 17:13:00.691155, 457
2015-10-27 17:13:00.691213, 460
2015-10-27 17:13:00.691252, 463
2015-10-27 17:13:00.707181, 463
2015-10-27 17:13:00.707276, 461
2015-10-27 17:13:00.707338, 462
2015-10-27 17:13:00.723279, 461
2015-10-27 17:13:00.723393, 460
2015-10-27 17:13:00.723475, 459
2015-10-27 17:13:00.742863, 459
2015-10-27 17:13:00.742966, 461
2015-10-27 17:13:00.743259, 460
2015-10-27 17:13:00.755157, 459
2015-10-27 17:13:00.755252, 459
2015-10-27 17:13:00.755320, 458
2015-10-27 17:13:00.771297, 458
2015-10-27 17:13:00.771393, 458
2015-10-27 17:13:00.771446, 459
2015-10-27 17:13:00.787110, 458
2015-10-27 17:13:00.787164, 458
2015-10-27 17:13:00.787201, 459
2015-10-27 17:13:00.803113, 460
2015-10-27 17:13:00.803168, 461
2015-10-27 17:13:00.803205, 462
2015-10-27 17:13:00.819265, 462
2015-10-27 17:13:00.819390, 463
2015-10-27 17:13:00.819464, 466
2015-10-27 17:13:00.835156, 467
2015-10-27 17:13:00.835250, 463
2015-10-27 17:13:00.835316, 464
2015-10-27 17:13:00.851353, 468
2015-10-27 17:13:00.851448, 471
2015-10-27 17:13:00.851515, 472
2015-10-27 17:13:00.867477, 473
2015-10-27 17:13:00.867596, 471
2015-10-27 17:13:00.867662, 470
2015-10-27 17:13:00.884165, 469
2015-10-27 17:13:00.884332, 471
2015-10-27 17:13:00.884413, 472
2015-10-27 17:13:00.899159, 472
2015-10-27 17:13:00.899300, 474
2015-10-27 17:13:00.899369, 477
2015-10-27 17:13:00.915091, 479
2015-10-27 17:13:00.915160, 479
2015-10-27 17:13:00.915198, 481
2015-10-27 17:13:00.915234, 482
2015-10-27 17:13:00.931935, 482
2015-10-27 17:13:00.932023, 481
2015-10-27 17:13:00.932091, 480
2015-10-27 17:13:00.947146, 480
2015-10-27 17:13:00.947265, 482
2015-10-27 17:13:00.947359, 482
2015-10-27 17:13:00.963986, 484
2015-10-27 17:13:00.964085, 487
2015-10-27 17:13:00.964167, 492
2015-10-27 17:13:00.979209, 494
2015-10-27 17:13:00.979309, 491
2015-10-27 17:13:00.979389, 494
2015-10-27 17:13:00.995062, 507
2015-10-27 17:13:00.995148, 519
2015-10-27 17:13:00.995217, 520
2015-10-27 17:13:01.011062, 512
2015-10-27 17:13:01.011152, 505
2015-10-27 17:13:01.011269, 500
2015-10-27 17:13:01.027054, 499
2015-10-27 17:13:01.027150, 502
2015-10-27 17:13:01.027191, 497
2015-10-27 17:13:01.043184, 491
2015-10-27 17:13:01.043312, 486
2015-10-27 17:13:01.043381, 485
2015-10-27 17:13:01.059602, 486
2015-10-27 17:13:01.059786, 488
2015-10-27 17:13:01.059877, 487
2015-10-27 17:13:01.075014, 487
2015-10-27 17:13:01.075109, 487
2015-10-27 17:13:01.075185, 484
2015-10-27 17:13:01.090999, 483
2015-10-27 17:13:01.091063, 487
2015-10-27 17:13:01.091105, 489
2015-10-27 17:13:01.107231, 488
2015-10-27 17:13:01.107332, 489
2015-10-27 17:13:01.107428, 506
2015-10-27 17:13:01.123094, 570
2015-10-27 17:13:01.123370, 711
2015-10-27 17:13:01.123458, 850
2015-10-27 17:13:01.139084, 948
2015-10-27 17:13:01.139273, 993
2015-10-27 17:13:01.139414, 993
2015-10-27 17:13:01.155231, 921
2015-10-27 17:13:01.155355, 626
2015-10-27 17:13:01.155422, 296
2015-10-27 17:13:01.155485, 199
2015-10-27 17:13:01.171234, 241
2015-10-27 17:13:01.171380, 304
2015-10-27 17:13:01.171481, 347
2015-10-27 17:13:01.187114, 388
2015-10-27 17:13:01.187204, 429
2015-10-27 17:13:01.187275, 459
2015-10-27 17:13:01.203124, 473
2015-10-27 17:13:01.203212, 481
2015-10-27 17:13:01.203280, 489
2015-10-27 17:13:01.220396, 495
2015-10-27 17:13:01.220487, 497
2015-10-27 17:13:01.220555, 498
2015-10-27 17:13:01.235153, 502
2015-10-27 17:13:01.235246, 507
2015-10-27 17:13:01.235334, 508
2015-10-27 17:13:01.251046, 511
2015-10-27 17:13:01.251137, 515
2015-10-27 17:13:01.251209, 519
2015-10-27 17:13:01.267050, 523
2015-10-27 17:13:01.267140, 526
2015-10-27 17:13:01.267207, 528
2015-10-27 17:13:01.283090, 535
2015-10-27 17:13:01.283248, 539
2015-10-27 17:13:01.283393, 543
2015-10-27 17:13:01.299102, 549
2015-10-27 17:13:01.299196, 557
2015-10-27 17:13:01.299268, 565
2015-10-27 17:13:01.315067, 572
2015-10-27 17:13:01.315157, 580
2015-10-27 17:13:01.315229, 588
2015-10-27 17:13:01.332988, 597
2015-10-27 17:13:01.333091, 609
2015-10-27 17:13:01.333164, 620
2015-10-27 17:13:01.347204, 629
2015-10-27 17:13:01.347295, 639
2015-10-27 17:13:01.347360, 646
2015-10-27 17:13:01.362997, 652
2015-10-27 17:13:01.363055, 655
2015-10-27 17:13:01.363092, 659
2015-10-27 17:13:01.378946, 661
2015-10-27 17:13:01.379052, 662
2015-10-27 17:13:01.379122, 659
2015-10-27 17:13:01.395333, 654
2015-10-27 17:13:01.395485, 644
2015-10-27 17:13:01.395555, 629
2015-10-27 17:13:01.411251, 612
2015-10-27 17:13:01.411414, 591
2015-10-27 17:13:01.411481, 569
2015-10-27 17:13:01.411543, 545
2015-10-27 17:13:01.427330, 524
2015-10-27 17:13:01.427422, 507
2015-10-27 17:13:01.427489, 491
2015-10-27 17:13:01.443175, 476
2015-10-27 17:13:01.443265, 466
2015-10-27 17:13:01.443331, 459
2015-10-27 17:13:01.459305, 453
2015-10-27 17:13:01.459395, 450
2015-10-27 17:13:01.459460, 449
2015-10-27 17:13:01.475545, 447
2015-10-27 17:13:01.475853, 446
2015-10-27 17:13:01.476105, 448
2015-10-27 17:13:01.491009, 449
2015-10-27 17:13:01.491094, 450
2015-10-27 17:13:01.491164, 452
2015-10-27 17:13:01.507046, 453
2015-10-27 17:13:01.507135, 451
2015-10-27 17:13:01.507202, 450
2015-10-27 17:13:01.523181, 452
2015-10-27 17:13:01.523329, 455
2015-10-27 17:13:01.523441, 454
2015-10-27 17:13:01.538975, 455
2015-10-27 17:13:01.539090, 457
2015-10-27 17:13:01.539185, 457
2015-10-27 17:13:01.554915, 456
2015-10-27 17:13:01.554969, 456
2015-10-27 17:13:01.555007, 459
2015-10-27 17:13:01.571103, 460
2015-10-27 17:13:01.571294, 459
2015-10-27 17:13:01.571369, 459
2015-10-27 17:13:01.586906, 460
2015-10-27 17:13:01.586965, 460
2015-10-27 17:13:01.587003, 458
2015-10-27 17:13:01.605420, 457
2015-10-27 17:13:01.605517, 459
2015-10-27 17:13:01.605607, 461
2015-10-27 17:13:01.619168, 460
2015-10-27 17:13:01.619328, 459
2015-10-27 17:13:01.619395, 456
2015-10-27 17:13:01.635161, 456
2015-10-27 17:13:01.635323, 457
2015-10-27 17:13:01.635390, 459
2015-10-27 17:13:01.651030, 459
2015-10-27 17:13:01.651208, 458
2015-10-27 17:13:01.651378, 460
2015-10-27 17:13:01.651470, 461
2015-10-27 17:13:01.667123, 459
2015-10-27 17:13:01.667215, 459
2015-10-27 17:13:01.667282, 461
2015-10-27 17:13:01.683009, 462
2015-10-27 17:13:01.683154, 461
2015-10-27 17:13:01.683274, 461
2015-10-27 17:13:01.698860, 461
2015-10-27 17:13:01.698914, 462
2015-10-27 17:13:01.698952, 462
2015-10-27 17:13:01.715876, 462
2015-10-27 17:13:01.715991, 464
2015-10-27 17:13:01.716087, 465
2015-10-27 17:13:01.730928, 466
2015-10-27 17:13:01.731019, 465
2015-10-27 17:13:01.731086, 466
2015-10-27 17:13:01.746913, 470
2015-10-27 17:13:01.747006, 471
2015-10-27 17:13:01.747087, 471
2015-10-27 17:13:01.762949, 473
2015-10-27 17:13:01.763082, 472
2015-10-27 17:13:01.763175, 472
2015-10-27 17:13:01.778926, 472
2015-10-27 17:13:01.778990, 475
2015-10-27 17:13:01.779054, 477
2015-10-27 17:13:01.795386, 478
2015-10-27 17:13:01.795483, 480
2015-10-27 17:13:01.795561, 481
2015-10-27 17:13:01.811535, 482
2015-10-27 17:13:01.811637, 480
2015-10-27 17:13:01.811808, 479
2015-10-27 17:13:01.826923, 480
2015-10-27 17:13:01.827034, 483
2015-10-27 17:13:01.827113, 483
2015-10-27 17:13:01.854535, 483
2015-10-27 17:13:01.854657, 482
2015-10-27 17:13:01.854826, 482
2015-10-27 17:13:01.858818, 490
2015-10-27 17:13:01.858929, 505
2015-10-27 17:13:01.859001, 512
2015-10-27 17:13:01.874817, 508
2015-10-27 17:13:01.874936, 502
2015-10-27 17:13:01.875010, 498
2015-10-27 17:13:01.890868, 499
2015-10-27 17:13:01.891152, 497
2015-10-27 17:13:01.891383, 496
2015-10-27 17:13:01.891463, 493
2015-10-27 17:13:01.906889, 488
2015-10-27 17:13:01.907016, 484
2015-10-27 17:13:01.907096, 480
2015-10-27 17:13:01.922856, 479
2015-10-27 17:13:01.922953, 480
2015-10-27 17:13:01.923028, 480
2015-10-27 17:13:01.938839, 480
2015-10-27 17:13:01.938894, 481
2015-10-27 17:13:01.938931, 480
2015-10-27 17:13:01.954842, 481
2015-10-27 17:13:01.954936, 482
2015-10-27 17:13:01.955010, 483
2015-10-27 17:13:01.970801, 482
2015-10-27 17:13:01.970856, 484
2015-10-27 17:13:01.970894, 509
2015-10-27 17:13:01.986905, 587
2015-10-27 17:13:01.986969, 730
2015-10-27 17:13:01.987015, 853
2015-10-27 17:13:02.003011, 948
2015-10-27 17:13:02.003109, 992
2015-10-27 17:13:02.003183, 989
2015-10-27 17:13:02.019181, 871
2015-10-27 17:13:02.019274, 547
2015-10-27 17:13:02.019343, 254
2015-10-27 17:13:02.034817, 188
2015-10-27 17:13:02.034898, 246
2015-10-27 17:13:02.034971, 312
2015-10-27 17:13:02.050747, 358
2015-10-27 17:13:02.050840, 402
2015-10-27 17:13:02.050912, 439
2015-10-27 17:13:02.066771, 462
2015-10-27 17:13:02.066829, 475
2015-10-27 17:13:02.066866, 483
2015-10-27 17:13:02.082814, 486
2015-10-27 17:13:02.082870, 493
2015-10-27 17:13:02.082908, 498
2015-10-27 17:13:02.098969, 502
2015-10-27 17:13:02.099078, 506
2015-10-27 17:13:02.099129, 508
2015-10-27 17:13:02.114698, 511
2015-10-27 17:13:02.114772, 516
2015-10-27 17:13:02.114815, 521
2015-10-27 17:13:02.130696, 524
2015-10-27 17:13:02.130806, 527
2015-10-27 17:13:02.130851, 530
2015-10-27 17:13:02.130887, 532
2015-10-27 17:13:02.146862, 536
2015-10-27 17:13:02.146953, 541
2015-10-27 17:13:02.147018, 545
2015-10-27 17:13:02.162750, 551
2015-10-27 17:13:02.162804, 559
2015-10-27 17:13:02.162842, 569
2015-10-27 17:13:02.178754, 577
2015-10-27 17:13:02.178846, 584
2015-10-27 17:13:02.178918, 591
2015-10-27 17:13:02.194691, 601
2015-10-27 17:13:02.194750, 612
2015-10-27 17:13:02.194790, 623
2015-10-27 17:13:02.210841, 634
2015-10-27 17:13:02.210931, 645
2015-10-27 17:13:02.210991, 653
2015-10-27 17:13:02.226717, 658
2015-10-27 17:13:02.226771, 663
2015-10-27 17:13:02.226807, 667
2015-10-27 17:13:02.242725, 668
2015-10-27 17:13:02.242833, 666
2015-10-27 17:13:02.242907, 662
2015-10-27 17:13:02.258711, 655
2015-10-27 17:13:02.258765, 644
2015-10-27 17:13:02.258802, 631
2015-10-27 17:13:02.274674, 614
2015-10-27 17:13:02.274730, 591
2015-10-27 17:13:02.274768, 566
2015-10-27 17:13:02.290682, 543
2015-10-27 17:13:02.290778, 522
2015-10-27 17:13:02.290853, 504
2015-10-27 17:13:02.306667, 488
2015-10-27 17:13:02.306764, 475
2015-10-27 17:13:02.306843, 464
2015-10-27 17:13:02.322776, 457
2015-10-27 17:13:02.322961, 452
2015-10-27 17:13:02.323031, 451
2015-10-27 17:13:02.338904, 448
2015-10-27 17:13:02.339027, 447
2015-10-27 17:13:02.339094, 447
2015-10-27 17:13:02.354791, 445
2015-10-27 17:13:02.354902, 444
2015-10-27 17:13:02.354970, 444
2015-10-27 17:13:02.370860, 445
2015-10-27 17:13:02.370972, 446
2015-10-27 17:13:02.371039, 446
2015-10-27 17:13:02.386860, 447
2015-10-27 17:13:02.387009, 448
2015-10-27 17:13:02.387076, 450
2015-10-27 17:13:02.387140, 454
2015-10-27 17:13:02.402875, 457
2015-10-27 17:13:02.402965, 460
2015-10-27 17:13:02.403031, 459
2015-10-27 17:13:02.418869, 458
2015-10-27 17:13:02.418960, 457
2015-10-27 17:13:02.419025, 460
2015-10-27 17:13:02.434763, 461
2015-10-27 17:13:02.434853, 463
2015-10-27 17:13:02.434918, 463
2015-10-27 17:13:02.450801, 462
2015-10-27 17:13:02.450949, 462
2015-10-27 17:13:02.451127, 461
2015-10-27 17:13:02.467100, 463
2015-10-27 17:13:02.467284, 464
2015-10-27 17:13:02.467439, 462
2015-10-27 17:13:02.482740, 460
2015-10-27 17:13:02.482829, 460
2015-10-27 17:13:02.482911, 462
2015-10-27 17:13:02.498607, 462
2015-10-27 17:13:02.498671, 461
2015-10-27 17:13:02.498716, 461
2015-10-27 17:13:02.514687, 463
2015-10-27 17:13:02.514895, 464
2015-10-27 17:13:02.515027, 464
2015-10-27 17:13:02.530663, 463
2015-10-27 17:13:02.530717, 462
2015-10-27 17:13:02.530754, 462
2015-10-27 17:13:02.546626, 462
2015-10-27 17:13:02.546695, 463
2015-10-27 17:13:02.546741, 463
2015-10-27 17:13:02.562890, 463
2015-10-27 17:13:02.563024, 462
2015-10-27 17:13:02.563091, 463
2015-10-27 17:13:02.578683, 464
2015-10-27 17:13:02.578778, 467
2015-10-27 17:13:02.578845, 468
2015-10-27 17:13:02.594818, 467
2015-10-27 17:13:02.594965, 468
2015-10-27 17:13:02.595032, 469
2015-10-27 17:13:02.610607, 469
2015-10-27 17:13:02.610716, 470
2015-10-27 17:13:02.610784, 471
2015-10-27 17:13:02.626544, 473
2015-10-27 17:13:02.626641, 475
2015-10-27 17:13:02.626702, 476
2015-10-27 17:13:02.626761, 475
2015-10-27 17:13:02.642543, 475
2015-10-27 17:13:02.642606, 473
2015-10-27 17:13:02.642643, 474
2015-10-27 17:13:02.658626, 476
2015-10-27 17:13:02.658693, 477
2015-10-27 17:13:02.658740, 478
2015-10-27 17:13:02.674770, 479
2015-10-27 17:13:02.674859, 480
2015-10-27 17:13:02.674925, 479
2015-10-27 17:13:02.690859, 478
2015-10-27 17:13:02.690950, 481
2015-10-27 17:13:02.691017, 484
2015-10-27 17:13:02.706622, 485
2015-10-27 17:13:02.706715, 485
2015-10-27 17:13:02.706782, 484
2015-10-27 17:13:02.722525, 483
2015-10-27 17:13:02.722601, 490
2015-10-27 17:13:02.722648, 505
2015-10-27 17:13:02.738599, 517
2015-10-27 17:13:02.738692, 517
2015-10-27 17:13:02.738762, 510
2015-10-27 17:13:02.754536, 504
2015-10-27 17:13:02.754627, 502
2015-10-27 17:13:02.754694, 500
2015-10-27 17:13:02.770517, 498
2015-10-27 17:13:02.770613, 495
2015-10-27 17:13:02.770688, 492
2015-10-27 17:13:02.788015, 488
2015-10-27 17:13:02.788102, 485
2015-10-27 17:13:02.788161, 482
2015-10-27 17:13:02.803066, 481
2015-10-27 17:13:02.803263, 480
2015-10-27 17:13:02.803386, 482
2015-10-27 17:13:02.818476, 485
2015-10-27 17:13:02.818532, 486
2015-10-27 17:13:02.818570, 486
2015-10-27 17:13:02.834473, 487
2015-10-27 17:13:02.834563, 488
2015-10-27 17:13:02.834612, 489
2015-10-27 17:13:02.850559, 489
2015-10-27 17:13:02.850732, 494
2015-10-27 17:13:02.850865, 534
2015-10-27 17:13:02.866685, 644
2015-10-27 17:13:02.866795, 793
2015-10-27 17:13:02.866863, 903
2015-10-27 17:13:02.866926, 974
2015-10-27 17:13:02.882563, 985
2015-10-27 17:13:02.882653, 910
2015-10-27 17:13:02.882721, 668
2015-10-27 17:13:02.898692, 333
2015-10-27 17:13:02.898784, 174
2015-10-27 17:13:02.898850, 191
2015-10-27 17:13:02.914828, 262
2015-10-27 17:13:02.914919, 317
2015-10-27 17:13:02.914990, 364
2015-10-27 17:13:02.930502, 414
2015-10-27 17:13:02.930590, 452
2015-10-27 17:13:02.930664, 471
2015-10-27 17:13:02.946825, 481
2015-10-27 17:13:02.946917, 488
2015-10-27 17:13:02.946983, 491
2015-10-27 17:13:02.962745, 496
2015-10-27 17:13:02.962834, 501
2015-10-27 17:13:02.962899, 507
2015-10-27 17:13:02.978544, 510
2015-10-27 17:13:02.978608, 513
2015-10-27 17:13:02.978654, 517
2015-10-27 17:13:02.994483, 522
2015-10-27 17:13:02.994538, 525
2015-10-27 17:13:02.994575, 527
2015-10-27 17:13:03.010487, 531
2015-10-27 17:13:03.010539, 537
2015-10-27 17:13:03.010576, 542
2015-10-27 17:13:03.026765, 546
2015-10-27 17:13:03.026920, 550
2015-10-27 17:13:03.027021, 555
2015-10-27 17:13:03.042699, 562
2015-10-27 17:13:03.042841, 571
2015-10-27 17:13:03.042909, 579
2015-10-27 17:13:03.058604, 588
2015-10-27 17:13:03.058699, 596
2015-10-27 17:13:03.058765, 605
2015-10-27 17:13:03.074839, 616
2015-10-27 17:13:03.074971, 626
2015-10-27 17:13:03.075039, 635
2015-10-27 17:13:03.090518, 645
2015-10-27 17:13:03.090705, 653
2015-10-27 17:13:03.090780, 659
2015-10-27 17:13:03.106716, 665
2015-10-27 17:13:03.106881, 669
2015-10-27 17:13:03.106949, 671
2015-10-27 17:13:03.122711, 669
2015-10-27 17:13:03.122859, 667
2015-10-27 17:13:03.122926, 662
2015-10-27 17:13:03.122989, 654
2015-10-27 17:13:03.138942, 643
2015-10-27 17:13:03.139033, 627
2015-10-27 17:13:03.139099, 607
2015-10-27 17:13:03.154827, 584
2015-10-27 17:13:03.154919, 561
2015-10-27 17:13:03.154985, 541
2015-10-27 17:13:03.170732, 518
2015-10-27 17:13:03.170822, 501
2015-10-27 17:13:03.170889, 487
2015-10-27 17:13:03.186639, 475
2015-10-27 17:13:03.186731, 465
2015-10-27 17:13:03.186798, 456
2015-10-27 17:13:03.202690, 452
2015-10-27 17:13:03.202789, 449
2015-10-27 17:13:03.202855, 448
2015-10-27 17:13:03.218707, 447
2015-10-27 17:13:03.218802, 446
2015-10-27 17:13:03.218869, 446
2015-10-27 17:13:03.234749, 446
2015-10-27 17:13:03.234872, 446
2015-10-27 17:13:03.234937, 446
2015-10-27 17:13:03.252547, 448
2015-10-27 17:13:03.252636, 450
2015-10-27 17:13:03.252702, 451
2015-10-27 17:13:03.266677, 453
2015-10-27 17:13:03.266829, 454
2015-10-27 17:13:03.266985, 455
2015-10-27 17:13:03.282719, 456
2015-10-27 17:13:03.282849, 457
2015-10-27 17:13:03.282914, 456
2015-10-27 17:13:03.298527, 458
2015-10-27 17:13:03.298622, 460
2015-10-27 17:13:03.298689, 462
2015-10-27 17:13:03.314806, 463
2015-10-27 17:13:03.314918, 463
2015-10-27 17:13:03.314984, 463
2015-10-27 17:13:03.330472, 464
2015-10-27 17:13:03.330591, 465
2015-10-27 17:13:03.330659, 464
2015-10-27 17:13:03.346572, 464
2015-10-27 17:13:03.346682, 464
2015-10-27 17:13:03.346748, 465
2015-10-27 17:13:03.362562, 466
2015-10-27 17:13:03.362709, 464
2015-10-27 17:13:03.362776, 461
2015-10-27 17:13:03.362839, 460
2015-10-27 17:13:03.378724, 459
2015-10-27 17:13:03.378815, 457
2015-10-27 17:13:03.378881, 456
2015-10-27 17:13:03.394634, 457
2015-10-27 17:13:03.394725, 458
2015-10-27 17:13:03.394792, 458
2015-10-27 17:13:03.410706, 459
2015-10-27 17:13:03.410795, 460
2015-10-27 17:13:03.410862, 460
2015-10-27 17:13:03.426457, 461
2015-10-27 17:13:03.426551, 463
2015-10-27 17:13:03.426618, 464
2015-10-27 17:13:03.442710, 463
2015-10-27 17:13:03.442801, 461
2015-10-27 17:13:03.442867, 461
2015-10-27 17:13:03.458715, 462
2015-10-27 17:13:03.458807, 463
2015-10-27 17:13:03.458872, 461
2015-10-27 17:13:03.474569, 462
2015-10-27 17:13:03.474661, 465
2015-10-27 17:13:03.474727, 467
2015-10-27 17:13:03.490674, 467
2015-10-27 17:13:03.490765, 468
2015-10-27 17:13:03.490831, 469
2015-10-27 17:13:03.506686, 470
2015-10-27 17:13:03.506810, 473
2015-10-27 17:13:03.506876, 474
2015-10-27 17:13:03.522572, 474
2015-10-27 17:13:03.522663, 473
2015-10-27 17:13:03.522730, 474
2015-10-27 17:13:03.538398, 476
2015-10-27 17:13:03.538492, 475
2015-10-27 17:13:03.538610, 477
2015-10-27 17:13:03.554539, 478
2015-10-27 17:13:03.554634, 478
2015-10-27 17:13:03.554701, 477
2015-10-27 17:13:03.571712, 478
2015-10-27 17:13:03.571819, 479
2015-10-27 17:13:03.571886, 483
2015-10-27 17:13:03.586541, 484
2015-10-27 17:13:03.586650, 485
2015-10-27 17:13:03.586717, 486
2015-10-27 17:13:03.602531, 486
2015-10-27 17:13:03.602639, 491
2015-10-27 17:13:03.602705, 504
2015-10-27 17:13:03.602768, 514
2015-10-27 17:13:03.618724, 516
2015-10-27 17:13:03.618818, 512
2015-10-27 17:13:03.618928, 508
2015-10-27 17:13:03.634648, 503
2015-10-27 17:13:03.634740, 500
2015-10-27 17:13:03.634935, 499
2015-10-27 17:13:03.650677, 496
2015-10-27 17:13:03.650768, 494
2015-10-27 17:13:03.650833, 486
2015-10-27 17:13:03.666640, 480
2015-10-27 17:13:03.666731, 480
2015-10-27 17:13:03.666797, 483
2015-10-27 17:13:03.682539, 482
2015-10-27 17:13:03.682630, 482
2015-10-27 17:13:03.682696, 483
2015-10-27 17:13:03.699084, 484
2015-10-27 17:13:03.699228, 485
2015-10-27 17:13:03.699344, 485
2015-10-27 17:13:03.714302, 485
2015-10-27 17:13:03.714376, 487
2015-10-27 17:13:03.714434, 488
2015-10-27 17:13:03.730344, 492
2015-10-27 17:13:03.730435, 520
2015-10-27 17:13:03.730502, 602
2015-10-27 17:13:03.746362, 753
2015-10-27 17:13:03.746455, 880
2015-10-27 17:13:03.746522, 958
2015-10-27 17:13:03.762661, 980
2015-10-27 17:13:03.762758, 924
2015-10-27 17:13:03.762824, 725
2015-10-27 17:13:03.778567, 399
2015-10-27 17:13:03.778699, 192
2015-10-27 17:13:03.778765, 182
2015-10-27 17:13:03.794578, 241
2015-10-27 17:13:03.794710, 297
2015-10-27 17:13:03.794776, 344
2015-10-27 17:13:03.810266, 398
2015-10-27 17:13:03.810371, 446
2015-10-27 17:13:03.810424, 472
2015-10-27 17:13:03.826298, 485
2015-10-27 17:13:03.826465, 493
2015-10-27 17:13:03.826584, 501
2015-10-27 17:13:03.842293, 506
2015-10-27 17:13:03.842437, 511
2015-10-27 17:13:03.842543, 513
2015-10-27 17:13:03.842644, 517
2015-10-27 17:13:03.858427, 523
2015-10-27 17:13:03.858571, 527
2015-10-27 17:13:03.858667, 531
2015-10-27 17:13:03.874382, 533
2015-10-27 17:13:03.874471, 536
2015-10-27 17:13:03.874537, 539
2015-10-27 17:13:03.890398, 543
2015-10-27 17:13:03.890540, 547
2015-10-27 17:13:03.890653, 553
2015-10-27 17:13:03.906546, 558
2015-10-27 17:13:03.906662, 564
2015-10-27 17:13:03.906728, 569
2015-10-27 17:13:03.922343, 575
2015-10-27 17:13:03.922407, 582
2015-10-27 17:13:03.922455, 587
2015-10-27 17:13:03.938253, 596
2015-10-27 17:13:03.938324, 608
2015-10-27 17:13:03.938370, 618
2015-10-27 17:13:03.954343, 627
2015-10-27 17:13:03.954492, 636
2015-10-27 17:13:03.954575, 645
2015-10-27 17:13:03.970276, 654
2015-10-27 17:13:03.970370, 660
2015-10-27 17:13:03.970484, 666
2015-10-27 17:13:03.986281, 671
2015-10-27 17:13:03.986343, 674
2015-10-27 17:13:03.986383, 675
2015-10-27 17:13:04.002245, 673
2015-10-27 17:13:04.002327, 669
2015-10-27 17:13:04.002369, 662
2015-10-27 17:13:04.018352, 652
2015-10-27 17:13:04.018432, 639
2015-10-27 17:13:04.018475, 622
2015-10-27 17:13:04.034484, 600
2015-10-27 17:13:04.034607, 575
2015-10-27 17:13:04.034673, 550
2015-10-27 17:13:04.050468, 529
2015-10-27 17:13:04.050634, 511
2015-10-27 17:13:04.050701, 495
2015-10-27 17:13:04.066380, 481
2015-10-27 17:13:04.066487, 470
2015-10-27 17:13:04.066553, 462
2015-10-27 17:13:04.082213, 456
2015-10-27 17:13:04.082320, 452
2015-10-27 17:13:04.082388, 448
2015-10-27 17:13:04.082452, 447
2015-10-27 17:13:04.098410, 446
2015-10-27 17:13:04.098500, 445
2015-10-27 17:13:04.098565, 445
2015-10-27 17:13:04.114421, 447
2015-10-27 17:13:04.114512, 449
2015-10-27 17:13:04.114596, 449
2015-10-27 17:13:04.130547, 450
2015-10-27 17:13:04.130639, 451
2015-10-27 17:13:04.130706, 449
2015-10-27 17:13:04.146365, 452
2015-10-27 17:13:04.146459, 456
2015-10-27 17:13:04.146526, 457
2015-10-27 17:13:04.162521, 458
2015-10-27 17:13:04.162612, 460
2015-10-27 17:13:04.162737, 461
2015-10-27 17:13:04.178504, 460
2015-10-27 17:13:04.178595, 460
2015-10-27 17:13:04.178661, 461
2015-10-27 17:13:04.194423, 463
2015-10-27 17:13:04.194515, 464
2015-10-27 17:13:04.194581, 464
2015-10-27 17:13:04.210474, 464
2015-10-27 17:13:04.210564, 464
2015-10-27 17:13:04.210630, 464
2015-10-27 17:13:04.226469, 464
2015-10-27 17:13:04.226591, 464
2015-10-27 17:13:04.226656, 463
2015-10-27 17:13:04.242464, 462
2015-10-27 17:13:04.242587, 461
2015-10-27 17:13:04.242653, 461
2015-10-27 17:13:04.258378, 461
2015-10-27 17:13:04.258512, 460
2015-10-27 17:13:04.258577, 460
2015-10-27 17:13:04.274195, 459
2015-10-27 17:13:04.274290, 459
2015-10-27 17:13:04.274358, 460
2015-10-27 17:13:04.290260, 459
2015-10-27 17:13:04.290459, 458
2015-10-27 17:13:04.290541, 458
2015-10-27 17:13:04.306330, 458
2015-10-27 17:13:04.306496, 458
2015-10-27 17:13:04.306564, 459
2015-10-27 17:13:04.322154, 461
2015-10-27 17:13:04.322265, 462
2015-10-27 17:13:04.322332, 462
2015-10-27 17:13:04.338343, 462
2015-10-27 17:13:04.338493, 461
2015-10-27 17:13:04.338560, 461
2015-10-27 17:13:04.338622, 463
2015-10-27 17:13:04.354244, 465
2015-10-27 17:13:04.354411, 466
2015-10-27 17:13:04.354530, 469
2015-10-27 17:13:04.370354, 471
2015-10-27 17:13:04.370446, 473
2015-10-27 17:13:04.370517, 474
2015-10-27 17:13:04.386104, 474
2015-10-27 17:13:04.386158, 474
2015-10-27 17:13:04.386205, 476
2015-10-27 17:13:04.402096, 476
2015-10-27 17:13:04.402150, 478
2015-10-27 17:13:04.402187, 479
2015-10-27 17:13:04.418137, 479
2015-10-27 17:13:04.418203, 480
2015-10-27 17:13:04.418249, 480
2015-10-27 17:13:04.434125, 481
2015-10-27 17:13:04.434189, 481
2015-10-27 17:13:04.434234, 481
2015-10-27 17:13:04.450302, 480
2015-10-27 17:13:04.450393, 481
2015-10-27 17:13:04.450459, 480
2015-10-27 17:13:04.466252, 482
2015-10-27 17:13:04.466346, 484
2015-10-27 17:13:04.466412, 486
2015-10-27 17:13:04.482429, 487
2015-10-27 17:13:04.482572, 487
2015-10-27 17:13:04.482639, 487
2015-10-27 17:13:04.498144, 494
2015-10-27 17:13:04.498253, 507
2015-10-27 17:13:04.498321, 517
2015-10-27 17:13:04.514057, 519
2015-10-27 17:13:04.514116, 514
2015-10-27 17:13:04.514154, 507
2015-10-27 17:13:04.530072, 502
2015-10-27 17:13:04.530130, 500
2015-10-27 17:13:04.530167, 497
2015-10-27 17:13:04.546027, 493
2015-10-27 17:13:04.546103, 489
2015-10-27 17:13:04.546157, 486
2015-10-27 17:13:04.562194, 483
2015-10-27 17:13:04.562303, 481
2015-10-27 17:13:04.562423, 481
2015-10-27 17:13:04.578058, 482
2015-10-27 17:13:04.578165, 483
2015-10-27 17:13:04.578231, 484
2015-10-27 17:13:04.578294, 483
2015-10-27 17:13:04.594377, 482
2015-10-27 17:13:04.594467, 484
2015-10-27 17:13:04.594532, 486
2015-10-27 17:13:04.610139, 488
2015-10-27 17:13:04.610280, 489
2015-10-27 17:13:04.610397, 495
2015-10-27 17:13:04.626034, 528
2015-10-27 17:13:04.626089, 626
2015-10-27 17:13:04.626126, 783
2015-10-27 17:13:04.642068, 900
2015-10-27 17:13:04.642174, 968
2015-10-27 17:13:04.642249, 976
2015-10-27 17:13:04.658040, 892
2015-10-27 17:13:04.658122, 658
2015-10-27 17:13:04.658181, 328
2015-10-27 17:13:04.674233, 170
2015-10-27 17:13:04.674326, 189
2015-10-27 17:13:04.674392, 253
2015-10-27 17:13:04.690077, 305
2015-10-27 17:13:04.690171, 351
2015-10-27 17:13:04.690238, 403
2015-10-27 17:13:04.706153, 447
2015-10-27 17:13:04.706363, 471
2015-10-27 17:13:04.706519, 485
2015-10-27 17:13:04.722296, 494
2015-10-27 17:13:04.722415, 500
2015-10-27 17:13:04.722481, 504
2015-10-27 17:13:04.738242, 508
2015-10-27 17:13:04.738339, 512
2015-10-27 17:13:04.738405, 515
2015-10-27 17:13:04.754208, 520
2015-10-27 17:13:04.754337, 524
2015-10-27 17:13:04.754403, 528
2015-10-27 17:13:04.770237, 531
2015-10-27 17:13:04.770332, 534
2015-10-27 17:13:04.770398, 537
2015-10-27 17:13:04.785997, 542
2015-10-27 17:13:04.786105, 546
2015-10-27 17:13:04.786172, 551
2015-10-27 17:13:04.802231, 558
2015-10-27 17:13:04.802448, 565
2015-10-27 17:13:04.802519, 573
2015-10-27 17:13:04.818232, 580
2015-10-27 17:13:04.818343, 587
2015-10-27 17:13:04.818410, 592
2015-10-27 17:13:04.818473, 597
2015-10-27 17:13:04.833977, 608
2015-10-27 17:13:04.834073, 616
2015-10-27 17:13:04.834146, 627
2015-10-27 17:13:04.850002, 637
2015-10-27 17:13:04.850092, 646
2015-10-27 17:13:04.850156, 654
2015-10-27 17:13:04.865985, 660
2015-10-27 17:13:04.866077, 667
2015-10-27 17:13:04.866136, 674
2015-10-27 17:13:04.882164, 676
2015-10-27 17:13:04.882255, 676
2015-10-27 17:13:04.882320, 673
2015-10-27 17:13:04.898044, 668
2015-10-27 17:13:04.898178, 660
2015-10-27 17:13:04.898285, 650
2015-10-27 17:13:04.914115, 637
2015-10-27 17:13:04.914210, 618
2015-10-27 17:13:04.914297, 596
2015-10-27 17:13:04.930244, 572
2015-10-27 17:13:04.930337, 549
2015-10-27 17:13:04.930403, 529
2015-10-27 17:13:04.946209, 511
2015-10-27 17:13:04.946332, 495
2015-10-27 17:13:04.946399, 480
2015-10-27 17:13:04.962245, 470
2015-10-27 17:13:04.962339, 464
2015-10-27 17:13:04.962423, 458
2015-10-27 17:13:04.977959, 453
2015-10-27 17:13:04.978053, 451
2015-10-27 17:13:04.978119, 451
2015-10-27 17:13:04.993881, 449
2015-10-27 17:13:04.993969, 447
2015-10-27 17:13:04.994030, 448
2015-10-27 17:13:05.009901, 450
2015-10-27 17:13:05.009958, 452
2015-10-27 17:13:05.009996, 453
2015-10-27 17:13:05.025880, 451
2015-10-27 17:13:05.025958, 452
2015-10-27 17:13:05.026004, 454
2015-10-27 17:13:05.042081, 458
2015-10-27 17:13:05.042190, 460
2015-10-27 17:13:05.042256, 462
2015-10-27 17:13:05.057895, 461
2015-10-27 17:13:05.058005, 461
2015-10-27 17:13:05.058073, 462
2015-10-27 17:13:05.058137, 464
2015-10-27 17:13:05.074107, 466
2015-10-27 17:13:05.074199, 466
2015-10-27 17:13:05.074265, 467
2015-10-27 17:13:05.091287, 467
2015-10-27 17:13:05.091341, 467
2015-10-27 17:13:05.091389, 468
2015-10-27 17:13:05.105948, 466
2015-10-27 17:13:05.106002, 464
2015-10-27 17:13:05.106039, 465
2015-10-27 17:13:05.121966, 463
2015-10-27 17:13:05.122029, 463
2015-10-27 17:13:05.122072, 464
2015-10-27 17:13:05.138140, 464
2015-10-27 17:13:05.138230, 463
2015-10-27 17:13:05.138296, 463
2015-10-27 17:13:05.154072, 464
2015-10-27 17:13:05.154162, 464
2015-10-27 17:13:05.154228, 463
2015-10-27 17:13:05.169988, 462
2015-10-27 17:13:05.170164, 461
2015-10-27 17:13:05.170239, 462
2015-10-27 17:13:05.186024, 463
2015-10-27 17:13:05.186130, 465
2015-10-27 17:13:05.186195, 469
2015-10-27 17:13:05.202191, 469
2015-10-27 17:13:05.202455, 467
2015-10-27 17:13:05.202531, 467
2015-10-27 17:13:05.218142, 466
2015-10-27 17:13:05.218237, 465
2015-10-27 17:13:05.218304, 466
2015-10-27 17:13:05.234152, 470
2015-10-27 17:13:05.234248, 471
2015-10-27 17:13:05.234315, 471
2015-10-27 17:13:05.250117, 470
2015-10-27 17:13:05.250212, 472
2015-10-27 17:13:05.250278, 473
2015-10-27 17:13:05.266247, 475
2015-10-27 17:13:05.266340, 475
2015-10-27 17:13:05.266406, 475
2015-10-27 17:13:05.281923, 476
2015-10-27 17:13:05.282034, 479
2015-10-27 17:13:05.282101, 479
2015-10-27 17:13:05.299257, 477
2015-10-27 17:13:05.299364, 477
2015-10-27 17:13:05.299436, 476
2015-10-27 17:13:05.313880, 477
2015-10-27 17:13:05.313947, 480
2015-10-27 17:13:05.313985, 481
2015-10-27 17:13:05.314020, 483
2015-10-27 17:13:05.330326, 486
2015-10-27 17:13:05.330421, 489
2015-10-27 17:13:05.330470, 487
2015-10-27 17:13:05.346043, 486
2015-10-27 17:13:05.346113, 486
2015-10-27 17:13:05.346163, 489
2015-10-27 17:13:05.362031, 492
2015-10-27 17:13:05.362123, 493
2015-10-27 17:13:05.362189, 492
2015-10-27 17:13:05.378074, 491
2015-10-27 17:13:05.378165, 497
2015-10-27 17:13:05.378231, 510
2015-10-27 17:13:05.394091, 519
2015-10-27 17:13:05.394181, 522
2015-10-27 17:13:05.394247, 518
2015-10-27 17:13:05.410205, 513
2015-10-27 17:13:05.410301, 508
2015-10-27 17:13:05.410367, 505
2015-10-27 17:13:05.426060, 506
2015-10-27 17:13:05.426209, 503
2015-10-27 17:13:05.426278, 495
2015-10-27 17:13:05.442108, 490
2015-10-27 17:13:05.442204, 485
2015-10-27 17:13:05.442270, 483
2015-10-27 17:13:05.458047, 484
2015-10-27 17:13:05.458140, 483
2015-10-27 17:13:05.458207, 484
2015-10-27 17:13:05.474107, 483
2015-10-27 17:13:05.474229, 482
2015-10-27 17:13:05.474294, 483
2015-10-27 17:13:05.490026, 485
2015-10-27 17:13:05.490230, 486
2015-10-27 17:13:05.490338, 487
2015-10-27 17:13:05.505899, 490
2015-10-27 17:13:05.505974, 495
2015-10-27 17:13:05.506014, 522
2015-10-27 17:13:05.521837, 615
2015-10-27 17:13:05.521931, 782
2015-10-27 17:13:05.521987, 918
2015-10-27 17:13:05.537789, 991
2015-10-27 17:13:05.537897, 994
2015-10-27 17:13:05.537975, 977
2015-10-27 17:13:05.553872, 782
2015-10-27 17:13:05.554052, 416
2015-10-27 17:13:05.554150, 199
2015-10-27 17:13:05.554239, 203
2015-10-27 17:13:05.570039, 262
2015-10-27 17:13:05.570129, 309
2015-10-27 17:13:05.570194, 346
2015-10-27 17:13:05.585886, 395
2015-10-27 17:13:05.585977, 444
2015-10-27 17:13:05.586042, 474
2015-10-27 17:13:05.602156, 488
2015-10-27 17:13:05.602249, 493
2015-10-27 17:13:05.602315, 497
2015-10-27 17:13:05.618128, 503
2015-10-27 17:13:05.618219, 509
2015-10-27 17:13:05.618305, 514
2015-10-27 17:13:05.633856, 518
2015-10-27 17:13:05.633947, 520
2015-10-27 17:13:05.634012, 524
2015-10-27 17:13:05.650540, 530
2015-10-27 17:13:05.650630, 531
2015-10-27 17:13:05.650703, 534
2015-10-27 17:13:05.665774, 540
2015-10-27 17:13:05.665829, 544
2015-10-27 17:13:05.665866, 546
2015-10-27 17:13:05.681803, 551
2015-10-27 17:13:05.681891, 558
2015-10-27 17:13:05.681970, 563
2015-10-27 17:13:05.697886, 567
2015-10-27 17:13:05.698022, 574
2015-10-27 17:13:05.698103, 581
2015-10-27 17:13:05.713987, 586
2015-10-27 17:13:05.714070, 594
2015-10-27 17:13:05.714127, 604
2015-10-27 17:13:05.742929, 615
2015-10-27 17:13:05.743086, 626
2015-10-27 17:13:05.743196, 635
2015-10-27 17:13:05.745742, 646
2015-10-27 17:13:05.745833, 657
2015-10-27 17:13:05.745900, 666
2015-10-27 17:13:05.761717, 671
2015-10-27 17:13:05.761822, 675
2015-10-27 17:13:05.761909, 678
2015-10-27 17:13:05.777698, 678
2015-10-27 17:13:05.777804, 675
2015-10-27 17:13:05.777875, 670
2015-10-27 17:13:05.793800, 662
2015-10-27 17:13:05.793867, 652
2015-10-27 17:13:05.793905, 637
2015-10-27 17:13:05.793941, 616
2015-10-27 17:13:05.810564, 594
2015-10-27 17:13:05.810652, 573
2015-10-27 17:13:05.810722, 552
2015-10-27 17:13:05.833418, 531
2015-10-27 17:13:05.833506, 509
2015-10-27 17:13:05.833579, 491
2015-10-27 17:13:05.844512, 478
2015-10-27 17:13:05.844607, 468
2015-10-27 17:13:05.844674, 463
2015-10-27 17:13:05.857713, 458
2015-10-27 17:13:05.857802, 454
2015-10-27 17:13:05.857867, 449
2015-10-27 17:13:05.873804, 448
2015-10-27 17:13:05.873893, 449
2015-10-27 17:13:05.873958, 446
2015-10-27 17:13:05.889688, 446
2015-10-27 17:13:05.889751, 448
2015-10-27 17:13:05.889789, 451
2015-10-27 17:13:05.905754, 452
2015-10-27 17:13:05.905850, 451
2015-10-27 17:13:05.905924, 450
2015-10-27 17:13:05.921732, 451
2015-10-27 17:13:05.921836, 452
2015-10-27 17:13:05.921904, 455
2015-10-27 17:13:05.937738, 456
2015-10-27 17:13:05.937938, 454
2015-10-27 17:13:05.938007, 455
2015-10-27 17:13:05.953737, 455
2015-10-27 17:13:05.953830, 453
2015-10-27 17:13:05.953897, 456
2015-10-27 17:13:05.969661, 457
2015-10-27 17:13:05.969764, 457
2015-10-27 17:13:05.969854, 459
2015-10-27 17:13:05.985692, 461
2015-10-27 17:13:05.985794, 460
2015-10-27 17:13:05.985868, 459
2015-10-27 17:13:06.001643, 457
2015-10-27 17:13:06.001749, 459
2015-10-27 17:13:06.001825, 463
2015-10-27 17:13:06.017624, 462
2015-10-27 17:13:06.017732, 460
2015-10-27 17:13:06.017802, 459
2015-10-27 17:13:06.033622, 460
2015-10-27 17:13:06.033729, 460
2015-10-27 17:13:06.033799, 459
2015-10-27 17:13:06.033870, 459
2015-10-27 17:13:06.049621, 459
2015-10-27 17:13:06.049738, 457
2015-10-27 17:13:06.051092, 458
2015-10-27 17:13:06.065660, 458
2015-10-27 17:13:06.065750, 459
2015-10-27 17:13:06.065821, 460
2015-10-27 17:13:06.081778, 460
2015-10-27 17:13:06.081894, 459
2015-10-27 17:13:06.081977, 459
2015-10-27 17:13:06.097664, 461
2015-10-27 17:13:06.097732, 464
2015-10-27 17:13:06.097780, 465
2015-10-27 17:13:06.113629, 466
2015-10-27 17:13:06.113685, 468
2015-10-27 17:13:06.113723, 467
2015-10-27 17:13:06.129652, 465
2015-10-27 17:13:06.129730, 464
2015-10-27 17:13:06.129775, 465
2015-10-27 17:13:06.145828, 468
2015-10-27 17:13:06.145922, 468
2015-10-27 17:13:06.145987, 468
2015-10-27 17:13:06.161650, 468
2015-10-27 17:13:06.161770, 468
2015-10-27 17:13:06.161861, 467
2015-10-27 17:13:06.177706, 470
2015-10-27 17:13:06.177808, 472
2015-10-27 17:13:06.177876, 472
2015-10-27 17:13:06.193676, 471
2015-10-27 17:13:06.193799, 471
2015-10-27 17:13:06.193869, 474
2015-10-27 17:13:06.209752, 476
2015-10-27 17:13:06.209846, 475
2015-10-27 17:13:06.209912, 476
2015-10-27 17:13:06.225688, 478
2015-10-27 17:13:06.225782, 478
2015-10-27 17:13:06.225848, 477
2015-10-27 17:13:06.241807, 479
2015-10-27 17:13:06.241938, 480
2015-10-27 17:13:06.242007, 482
2015-10-27 17:13:06.257791, 486
2015-10-27 17:13:06.257945, 488
2015-10-27 17:13:06.258012, 487
2015-10-27 17:13:06.273578, 489
2015-10-27 17:13:06.273689, 500
2015-10-27 17:13:06.273757, 513
2015-10-27 17:13:06.289709, 516
2015-10-27 17:13:06.289819, 510
2015-10-27 17:13:06.289886, 506
2015-10-27 17:13:06.289949, 503
2015-10-27 17:13:06.305793, 499
2015-10-27 17:13:06.305885, 496
2015-10-27 17:13:06.305951, 494
2015-10-27 17:13:06.321728, 490
2015-10-27 17:13:06.321822, 488
2015-10-27 17:13:06.321888, 485
2015-10-27 17:13:06.337575, 481
2015-10-27 17:13:06.337650, 481
2015-10-27 17:13:06.337703, 483
2015-10-27 17:13:06.353810, 483
2015-10-27 17:13:06.353903, 484
2015-10-27 17:13:06.353970, 485
2015-10-27 17:13:06.369640, 488
2015-10-27 17:13:06.369731, 489
2015-10-27 17:13:06.369797, 489
2015-10-27 17:13:06.385796, 488
2015-10-27 17:13:06.385886, 485
2015-10-27 17:13:06.385951, 491
2015-10-27 17:13:06.401729, 528
2015-10-27 17:13:06.401822, 626
2015-10-27 17:13:06.401888, 782
2015-10-27 17:13:06.417703, 908
2015-10-27 17:13:06.417797, 987
2015-10-27 17:13:06.417863, 995
2015-10-27 17:13:06.433588, 984
2015-10-27 17:13:06.433684, 804
2015-10-27 17:13:06.433751, 437
2015-10-27 17:13:06.449731, 211
2015-10-27 17:13:06.449826, 203
2015-10-27 17:13:06.449891, 267
2015-10-27 17:13:06.465689, 321
2015-10-27 17:13:06.465784, 361
2015-10-27 17:13:06.465850, 406
2015-10-27 17:13:06.481756, 446
2015-10-27 17:13:06.481850, 469
2015-10-27 17:13:06.481917, 478
2015-10-27 17:13:06.497483, 484
2015-10-27 17:13:06.497596, 491
2015-10-27 17:13:06.497665, 496
2015-10-27 17:13:06.513718, 501
2015-10-27 17:13:06.513870, 505
2015-10-27 17:13:06.513937, 509
2015-10-27 17:13:06.529639, 512
2015-10-27 17:13:06.529747, 516
2015-10-27 17:13:06.529814, 520
2015-10-27 17:13:06.529877, 524
2015-10-27 17:13:06.545800, 528
2015-10-27 17:13:06.545894, 532
2015-10-27 17:13:06.545960, 535
2015-10-27 17:13:06.561595, 539
2015-10-27 17:13:06.561748, 544
2015-10-27 17:13:06.561941, 548
2015-10-27 17:13:06.577826, 552
2015-10-27 17:13:06.577919, 560
2015-10-27 17:13:06.577985, 567
2015-10-27 17:13:06.593800, 572
2015-10-27 17:13:06.593918, 578
2015-10-27 17:13:06.593984, 586
2015-10-27 17:13:06.609641, 597
2015-10-27 17:13:06.609732, 607
2015-10-27 17:13:06.609798, 617
2015-10-27 17:13:06.625738, 628
2015-10-27 17:13:06.625856, 638
2015-10-27 17:13:06.625922, 649
2015-10-27 17:13:06.641689, 657
2015-10-27 17:13:06.641780, 661
2015-10-27 17:13:06.641846, 667
2015-10-27 17:13:06.657642, 670
2015-10-27 17:13:06.657736, 668
2015-10-27 17:13:06.657803, 664
2015-10-27 17:13:06.673555, 661
2015-10-27 17:13:06.673647, 654
2015-10-27 17:13:06.673713, 642
2015-10-27 17:13:06.689494, 627
2015-10-27 17:13:06.689596, 607
2015-10-27 17:13:06.689674, 584
2015-10-27 17:13:06.705518, 561
2015-10-27 17:13:06.705612, 540
2015-10-27 17:13:06.705737, 518
2015-10-27 17:13:06.721610, 499
2015-10-27 17:13:06.721705, 484
2015-10-27 17:13:06.721771, 470
2015-10-27 17:13:06.737569, 459
2015-10-27 17:13:06.737677, 451
2015-10-27 17:13:06.737745, 447
2015-10-27 17:13:06.753570, 443
