timestamp,raw_value,wavelet_value
datetime,int,float
T,,
2015-10-28 16:45:33.939256,614,531.68452793045572
2015-10-28 16:45:33.939320,620,531.68452793045572
2015-10-28 16:45:33.955153,626,531.68452793045572
2015-10-28 16:45:33.955243,632,531.68452793045572
2015-10-28 16:45:33.955307,636,531.68452793045572
2015-10-28 16:45:33.971006,640,531.68452793045583
2015-10-28 16:45:33.971106,641,531.68452793045583
2015-10-28 16:45:33.971233,642,531.68452793045583
2015-10-28 16:45:33.987130,639,531.68452793045583
2015-10-28 16:45:33.987223,635,531.68452793045583
2015-10-28 16:45:33.987289,628,531.68452793045583
2015-10-28 16:45:34.003151,617,531.68452793045583
2015-10-28 16:45:34.003244,601,531.68452793045583
2015-10-28 16:45:34.003309,581,531.68452793045583
2015-10-28 16:45:34.018975,562,531.68452793045583
2015-10-28 16:45:34.019163,546,531.68452793045583
2015-10-28 16:45:34.019301,531,531.68452793045583
2015-10-28 16:45:34.035095,517,532.02934337218107
2015-10-28 16:45:34.035201,507,532.22207498407386
2015-10-28 16:45:34.035265,500,532.39553343477746
2015-10-28 16:45:34.051102,493,532.55247203303304
2015-10-28 16:45:34.051208,488,532.69514348599262
2015-10-28 16:45:34.051274,487,532.82540872565141
2015-10-28 16:45:34.051336,485,532.94481852867204
2015-10-28 16:45:34.067242,484,533.05467554745087
2015-10-28 16:45:34.067350,485,533.15608202632382
2015-10-28 16:45:34.067429,486,533.249976914169
2015-10-28 16:45:34.082984,485,533.33716502431105
2015-10-28 16:45:34.083071,486,533.41834016133976
2015-10-28 16:45:34.083135,488,533.49410362256663
2015-10-28 16:45:34.099178,490,533.56497911855297
2015-10-28 16:45:34.099363,490,533.63142489604024
2015-10-28 16:45:34.099444,491,533.6938436567101
2015-10-28 16:45:34.115165,493,533.75259072557583
2015-10-28 16:45:34.115266,495,533.80798081907778
2015-10-28 16:45:34.115353,496,533.86029368516301
2015-10-28 16:45:34.131057,497,533.90977882875711
2015-10-28 16:45:34.131146,497,533.95665949110946
2015-10-28 16:45:34.131210,500,534.00113601693079
2015-10-28 16:45:34.147158,501,534.04338871646121
2015-10-28 16:45:34.147319,500,534.08358030869738
2015-10-28 16:45:34.147394,502,534.12185801558894
2015-10-28 16:45:34.163122,503,534.15835536402051
2015-10-28 16:45:34.163211,501,534.19319374206884
2015-10-28 16:45:34.163275,501,534.2264837477594
2015-10-28 16:45:34.179092,501,534.25832636189818
2015-10-28 16:45:34.179182,500,534.28881397118005
2015-10-28 16:45:34.179246,497,534.31803126340844
2015-10-28 16:45:34.195056,496,534.34605601309693
2015-10-28 16:45:34.195147,496,534.37295977279791
2015-10-28 16:45:34.195211,494,534.39880848309883
2015-10-28 16:45:34.210926,493,534.42366301223433
2015-10-28 16:45:34.211014,493,534.44757963461007
2015-10-28 16:45:34.211079,493,534.47061045615703
2015-10-28 16:45:34.226866,492,534.492803793284
2015-10-28 16:45:34.226958,490,534.51420451122794
2015-10-28 16:45:34.227023,490,534.53485432678792
2015-10-28 16:45:34.242920,490,534.55479207974236
2015-10-28 16:45:34.243012,489,534.57405397666446
2015-10-28 16:45:34.243077,487,534.59267381035579
2015-10-28 16:45:34.259049,486,534.6106831576966
2015-10-28 16:45:34.259141,487,534.62811155834902
2015-10-28 16:45:34.259205,486,534.64498667644102
2015-10-28 16:45:34.274910,484,534.6613344470926
2015-10-28 16:45:34.275016,484,534.67717920941652
2015-10-28 16:45:34.275081,484,534.69254382742747
2015-10-28 16:45:34.290875,483,534.70744980012478
2015-10-28 16:45:34.290981,481,534.72191736186039
2015-10-28 16:45:34.291047,481,534.73596557398048
2015-10-28 16:45:34.306986,482,534.74961240861137
2015-10-28 16:45:34.307093,480,534.76287482536532
2015-10-28 16:45:34.307158,479,534.77576884165398
2015-10-28 16:45:34.307219,479,534.78830959722234
2015-10-28 16:45:34.323064,480,534.80051141345098
2015-10-28 16:45:34.323153,480,534.81238784791356
2015-10-28 16:45:34.323217,476,534.82395174462715
2015-10-28 16:45:34.338996,475,534.83521528038716
2015-10-28 16:45:34.339086,477,534.84619000753787
2015-10-28 16:45:34.339149,477,534.8568868934949
2015-10-28 16:45:34.355025,478,534.86731635730303
2015-10-28 16:45:34.355185,481,534.8774883034863
2015-10-28 16:45:34.355314,477,534.88741215342111
2015-10-28 16:45:34.371107,475,534.8970968744419
2015-10-28 16:45:34.371198,482,534.90655100686695
2015-10-28 16:45:34.371264,486,534.91578268911735
2015-10-28 16:45:34.387034,483,534.92479968108273
2015-10-28 16:45:34.387123,480,534.93360938587659
2015-10-28 16:45:34.387188,476,534.9422188701069
2015-10-28 16:45:34.402812,472,534.95063488278151
2015-10-28 16:45:34.402876,469,534.95886387295218
2015-10-28 16:45:34.402920,468,534.96691200619603
2015-10-28 16:45:34.419062,468,534.97478518002163
2015-10-28 16:45:34.419210,468,534.98248903828096
2015-10-28 16:45:34.419296,469,534.99002898466244
2015-10-28 16:45:34.435030,468,534.99741019533076
2015-10-28 16:45:34.435119,468,535.00463763077676
2015-10-28 16:45:34.435183,468,535.01171604693513
2015-10-28 16:45:34.450819,468,535.018650005621
2015-10-28 16:45:34.450909,470,535.0254438843333
2015-10-28 16:45:34.450974,470,535.03210188547143
2015-10-28 16:45:34.466774,457,535.07216904614825
2015-10-28 16:45:34.466837,414,535.14458858746298
2015-10-28 16:45:34.466895,386,535.16131891353768
2015-10-28 16:45:34.482877,385,535.20333055243827
2015-10-28 16:45:34.482969,380,535.20127493747168
2015-10-28 16:45:34.483033,378,535.17257589825363
2015-10-28 16:45:34.498909,360,534.99529152312959
2015-10-28 16:45:34.499002,310,534.53523245173074
2015-10-28 16:45:34.499066,330,533.85363592762678
2015-10-28 16:45:34.514906,410,533.17203940352272
2015-10-28 16:45:34.515014,471,532.49044287941877
2015-10-28 16:45:34.515080,494,531.80884635531481
2015-10-28 16:45:34.530891,496,531.12724983121086
2015-10-28 16:45:34.530999,494,530.4456533071068
2015-10-28 16:45:34.531064,497,529.76405678300284
2015-10-28 16:45:34.546765,500,529.08246025889878
2015-10-28 16:45:34.546870,500,528.40086373479483
2015-10-28 16:45:34.546934,500,527.6572004311804
2015-10-28 16:45:34.546995,502,526.93553674639952
2015-10-28 16:45:34.562728,504,526.21387306161864
2015-10-28 16:45:34.562781,505,525.49220937683776
2015-10-28 16:45:34.562833,505,524.77054569205688
2015-10-28 16:45:34.578755,507,524.04888200727601
2015-10-28 16:45:34.578862,508,523.32721832249513
2015-10-28 16:45:34.578931,509,522.60555463771425
2015-10-28 16:45:34.594971,511,521.88389095293337
2015-10-28 16:45:34.595061,513,521.16222726815249
2015-10-28 16:45:34.595125,513,520.44056358337161
2015-10-28 16:45:34.610935,513,519.71889989859073
2015-10-28 16:45:34.611026,514,518.99723621380986
2015-10-28 16:45:34.611100,517,518.27557252902909
2015-10-28 16:45:34.626948,518,517.55390884424821
2015-10-28 16:45:34.627038,518,516.83224515946733
2015-10-28 16:45:34.627102,520,516.11058147468646
2015-10-28 16:45:34.642936,522,515.38891778990558
2015-10-28 16:45:34.643027,522,514.6672541051247
2015-10-28 16:45:34.643091,525,513.94559042034382
2015-10-28 16:45:34.659011,528,513.22392673556294
2015-10-28 16:45:34.659113,531,512.50226305078206
2015-10-28 16:45:34.659178,534,511.78059936600124
2015-10-28 16:45:34.674954,538,511.05893568122036
2015-10-28 16:45:34.675044,544,510.33727199643943
2015-10-28 16:45:34.675109,550,509.61560831165855
2015-10-28 16:45:34.690733,557,508.89394462687767
2015-10-28 16:45:34.690798,560,508.17228094209679
2015-10-28 16:45:34.690845,567,507.45061725731586
2015-10-28 16:45:34.707022,573,506.72895357253498
2015-10-28 16:45:34.707116,577,506.00728988775421
2015-10-28 16:45:34.707181,579,505.28562620297339
2015-10-28 16:45:34.723005,584,504.56396251819251
2015-10-28 16:45:34.723133,585,503.84229883341175
2015-10-28 16:45:34.723198,583,503.12063514863087
2015-10-28 16:45:34.738795,580,502.39897146385005
2015-10-28 16:45:34.738889,576,501.67730777906917
2015-10-28 16:45:34.738953,569,500.9556440942884
2015-10-28 16:45:34.754845,556,500.23398040950758
2015-10-28 16:45:34.754954,538,499.5123167247267
2015-10-28 16:45:34.755019,520,498.79065303994594
2015-10-28 16:45:34.770768,502,498.06898935516506
2015-10-28 16:45:34.770873,486,497.34732567038424
2015-10-28 16:45:34.770937,473,496.62566198560347
2015-10-28 16:45:34.786833,463,495.90399830082259
2015-10-28 16:45:34.786939,455,495.18233461604177
2015-10-28 16:45:34.787005,448,494.46067093126095
2015-10-28 16:45:34.787067,445,493.71795497110139
2015-10-28 16:45:34.803029,441,492.97523901094178
2015-10-28 16:45:34.803121,438,492.23252305078222
2015-10-28 16:45:34.803186,436,491.48980709062266
2015-10-28 16:45:34.819004,437,490.74709113046305
2015-10-28 16:45:34.819141,438,490.00437517030349
2015-10-28 16:45:34.819236,437,489.26165921014388
2015-10-28 16:45:34.834993,437,488.51894324998432
2015-10-28 16:45:34.835083,440,487.77622728982476
2015-10-28 16:45:34.835156,442,487.0335113296652
2015-10-28 16:45:34.850879,442,486.29079536950559
2015-10-28 16:45:34.850968,444,485.54807940934603
2015-10-28 16:45:34.851032,449,484.80536344918653
2015-10-28 16:45:34.866746,452,484.06264748902686
2015-10-28 16:45:34.866836,452,483.31993152886724
2015-10-28 16:45:34.866900,454,482.57721556870774
2015-10-28 16:45:34.882878,457,481.83449960854807
2015-10-28 16:45:34.882966,457,481.09178364838846
2015-10-28 16:45:34.883029,456,480.3490676882289
2015-10-28 16:45:34.898989,457,479.60635172806928
2015-10-28 16:45:34.899081,459,478.86363576790967
2015-10-28 16:45:34.899145,459,478.12091980775011
2015-10-28 16:45:34.914848,459,477.3782038475905
2015-10-28 16:45:34.914938,460,476.63548788743094
2015-10-28 16:45:34.915021,461,475.89277192727133
2015-10-28 16:45:34.930848,462,475.15005596711171
2015-10-28 16:45:34.931039,461,474.4073400069521
2015-10-28 16:45:34.931237,461,473.66462404679254
2015-10-28 16:45:34.946863,461,472.92190808663298
2015-10-28 16:45:34.946959,461,472.17919212647337
2015-10-28 16:45:34.947029,462,471.43647616631375
2015-10-28 16:45:34.962918,463,470.6937602061542
2015-10-28 16:45:34.963011,464,469.95104424599458
2015-10-28 16:45:34.963075,463,469.20832828583497
2015-10-28 16:45:34.978743,463,468.46561232567541
2015-10-28 16:45:34.978834,464,467.72289636551585
2015-10-28 16:45:34.978898,462,466.98018040535624
2015-10-28 16:45:34.994789,462,466.20511206455893
2015-10-28 16:45:34.994896,464,465.48573293900148
2015-10-28 16:45:34.994960,466,464.74107250061815
2015-10-28 16:45:35.010851,466,464.04047931610216
2015-10-28 16:45:35.011010,466,463.36652955583742
2015-10-28 16:45:35.011077,466,462.84116513147882
2015-10-28 16:45:35.026850,467,462.59857540339488
2015-10-28 16:45:35.026959,467,462.57752312801614
2015-10-28 16:45:35.027025,465,462.5564708526374
2015-10-28 16:45:35.027087,467,462.53541857725861
2015-10-28 16:45:35.042821,469,462.51436630187987
2015-10-28 16:45:35.042910,468,462.49331402650114
2015-10-28 16:45:35.042974,468,462.4722617511224
2015-10-28 16:45:35.058800,471,462.45120947574361
2015-10-28 16:45:35.058891,472,462.43015720036487
2015-10-28 16:45:35.058954,473,462.40910492498614
2015-10-28 16:45:35.074850,474,462.38805264960735
2015-10-28 16:45:35.074954,475,462.36700037422861
2015-10-28 16:45:35.075019,475,462.34594809884987
2015-10-28 16:45:35.090900,475,462.32489582347114
2015-10-28 16:45:35.090991,475,462.30384354809235
2015-10-28 16:45:35.091056,476,462.28279127271361
2015-10-28 16:45:35.106905,476,462.26173899733487
2015-10-28 16:45:35.107024,475,462.24068672195608
2015-10-28 16:45:35.107088,478,462.21963444657734
2015-10-28 16:45:35.122644,481,462.19858217119861
2015-10-28 16:45:35.122732,482,462.17752989581987
2015-10-28 16:45:35.122795,486,462.15647762044108
2015-10-28 16:45:35.138690,490,462.1354253450624
2015-10-28 16:45:35.138809,490,462.11437306968367
2015-10-28 16:45:35.138872,491,462.09332079430493
2015-10-28 16:45:35.154862,497,462.07226851892619
2015-10-28 16:45:35.154957,497,462.05121624354751
2015-10-28 16:45:35.155049,496,462.03016396816872
2015-10-28 16:45:35.170975,498,462.00911169278999
2015-10-28 16:45:35.171083,498,461.98805941741125
2015-10-28 16:45:35.171148,495,461.96700714203257
2015-10-28 16:45:35.186877,488,461.94595486665378
2015-10-28 16:45:35.186999,485,461.92490259127504
2015-10-28 16:45:35.187064,483,461.90385031589631
2015-10-28 16:45:35.202589,484,461.88279804051763
2015-10-28 16:45:35.202682,485,461.86174576513889
2015-10-28 16:45:35.202749,487,461.8406934897601
2015-10-28 16:45:35.218735,486,461.81964121438136
2015-10-28 16:45:35.218826,486,461.79858893900268
2015-10-28 16:45:35.218890,486,461.77753666362395
2015-10-28 16:45:35.234930,485,461.75648438824516
2015-10-28 16:45:35.235052,487,461.73543211286642
2015-10-28 16:45:35.235125,488,461.71437983748768
2015-10-28 16:45:35.250768,488,461.69332756210895
2015-10-28 16:45:35.250875,480,461.67227528673016
2015-10-28 16:45:35.250941,453,461.65122301135148
2015-10-28 16:45:35.266800,416,461.63017073597274
2015-10-28 16:45:35.266961,415,461.609118460594
2015-10-28 16:45:35.267026,420,461.58806618521521
2015-10-28 16:45:35.282666,416,461.56701390983648
2015-10-28 16:45:35.282771,407,461.54596163445774
2015-10-28 16:45:35.282836,356,461.5392373184165
2015-10-28 16:45:35.282898,331,461.48165341626691
2015-10-28 16:45:35.298916,402,461.42406951411726
2015-10-28 16:45:35.299026,476,461.36648561196762
2015-10-28 16:45:35.299092,513,461.30890170981797
2015-10-28 16:45:35.314888,523,461.25131780766833
2015-10-28 16:45:35.314979,524,461.21478618089748
2015-10-28 16:45:35.315044,524,461.17825455412657
2015-10-28 16:45:35.330724,525,461.14172292735566
2015-10-28 16:45:35.330814,529,461.10519130058481
2015-10-28 16:45:35.330879,533,461.0686596738139
2015-10-28 16:45:35.346556,533,461.03212804704305
2015-10-28 16:45:35.346622,535,460.99559642027214
2015-10-28 16:45:35.346666,538,460.95906479350128
2015-10-28 16:45:35.362493,540,460.92253316673037
2015-10-28 16:45:35.362548,540,460.88600153995952
2015-10-28 16:45:35.362585,542,460.84946991318861
2015-10-28 16:45:35.378482,545,460.8129382864177
2015-10-28 16:45:35.378565,547,460.77640665964685
2015-10-28 16:45:35.378629,547,460.73987503287594
2015-10-28 16:45:35.395243,548,460.70334340610509
2015-10-28 16:45:35.395474,551,460.66681177933418
2015-10-28 16:45:35.395541,551,460.63028015256333
2015-10-28 16:45:35.410519,552,460.59374852579242
2015-10-28 16:45:35.410608,555,460.55721689902157
2015-10-28 16:45:35.410740,559,460.52068527225066
2015-10-28 16:45:35.426559,560,460.48415364547975
2015-10-28 16:45:35.426753,560,460.4476220187089
2015-10-28 16:45:35.426851,563,460.41109039193799
2015-10-28 16:45:35.442466,567,460.37455876516702
2015-10-28 16:45:35.442558,571,460.33802713839611
2015-10-28 16:45:35.442623,574,460.30149551162515
2015-10-28 16:45:35.458443,578,460.26496388485418
2015-10-28 16:45:35.458499,583,460.22843225808322
2015-10-28 16:45:35.458536,588,460.19190063131225
2015-10-28 16:45:35.474435,592,460.15536900454128
2015-10-28 16:45:35.474492,598,460.11883737777038
2015-10-28 16:45:35.474528,605,460.08230575099941
2015-10-28 16:45:35.490423,612,460.04577412422844
2015-10-28 16:45:35.490527,619,460.00924249745748
2015-10-28 16:45:35.490599,625,459.97271087068651
2015-10-28 16:45:35.506393,629,459.93617924391555
2015-10-28 16:45:35.506457,631,459.89964761714464
2015-10-28 16:45:35.506495,634,459.86311599037367
2015-10-28 16:45:35.522385,636,459.82658436360271
2015-10-28 16:45:35.522485,636,459.79005273683174
2015-10-28 16:45:35.522550,631,459.75352111006077
2015-10-28 16:45:35.522612,623,459.71698948328981
2015-10-28 16:45:35.538437,616,459.68045785651884
2015-10-28 16:45:35.538536,605,459.74539156205128
2015-10-28 16:45:35.538601,588,460.12091967582114
2015-10-28 16:45:35.554448,571,460.49644778959106
2015-10-28 16:45:35.554532,553,460.87197590336098
2015-10-28 16:45:35.554596,538,461.24750401713089
2015-10-28 16:45:35.570622,525,461.62303213090081
2015-10-28 16:45:35.570711,516,461.99856024467067
2015-10-28 16:45:35.570775,510,462.37408835844059
2015-10-28 16:45:35.586442,503,462.7496164722105
2015-10-28 16:45:35.586504,497,463.12514458598042
2015-10-28 16:45:35.586625,495,463.50067269975034
2015-10-28 16:45:35.602453,494,463.8762008135202
2015-10-28 16:45:35.602517,494,464.25172892729012
2015-10-28 16:45:35.602556,494,464.62725704106003
2015-10-28 16:45:35.618438,496,465.00278515482995
2015-10-28 16:45:35.618489,499,465.37831326859987
2015-10-28 16:45:35.618525,501,465.75384138236973
2015-10-28 16:45:35.634418,501,466.12936949613965
2015-10-28 16:45:35.634482,503,466.50489760990962
2015-10-28 16:45:35.634525,506,466.88042572367954
2015-10-28 16:45:35.650447,507,467.25595383744945
2015-10-28 16:45:35.650510,509,467.63148195121937
2015-10-28 16:45:35.650554,512,468.00701006498934
2015-10-28 16:45:35.666363,514,468.38253817875921
2015-10-28 16:45:35.666417,514,468.75806629252912
2015-10-28 16:45:35.666453,515,469.13359440629904
2015-10-28 16:45:35.682326,518,469.50912252006901
2015-10-28 16:45:35.682377,517,469.88465063383893
2015-10-28 16:45:35.682414,517,470.26017874760885
2015-10-28 16:45:35.698375,519,470.63570686137882
2015-10-28 16:45:35.698457,521,471.0112349751488
2015-10-28 16:45:35.698521,519,471.38676308891871
2015-10-28 16:45:35.714421,517,471.76229120268869
2015-10-28 16:45:35.714514,518,472.13781931645866
2015-10-28 16:45:35.714579,521,472.51334743022863
2015-10-28 16:45:35.730424,520,472.88887554399861
2015-10-28 16:45:35.730532,519,473.26440365776858
2015-10-28 16:45:35.730596,518,473.6399317715385
2015-10-28 16:45:35.746301,520,474.01545988530847
2015-10-28 16:45:35.746374,520,474.39098799907845
2015-10-28 16:45:35.746418,519,474.76651611284842
2015-10-28 16:45:35.762337,519,475.1420442266184
2015-10-28 16:45:35.762442,519,475.51757234038831
2015-10-28 16:45:35.762481,517,475.89310045415829
2015-10-28 16:45:35.762516,517,476.26862856792826
2015-10-28 16:45:35.778477,519,476.64415668169823
2015-10-28 16:45:35.778568,520,477.01968479546815
2015-10-28 16:45:35.778630,518,477.39521290923813
2015-10-28 16:45:35.794409,519,477.7707410230081
2015-10-28 16:45:35.794490,520,478.14626913677807
2015-10-28 16:45:35.794546,520,478.52179725054805
2015-10-28 16:45:35.810410,518,478.88299740498053
2015-10-28 16:45:35.810497,519,479.29505714552147
2015-10-28 16:45:35.810569,521,479.70711688606229
2015-10-28 16:45:35.826342,520,480.11917662660323
2015-10-28 16:45:35.826468,520,480.53123636714412
2015-10-28 16:45:35.826508,522,480.94329610768506
2015-10-28 16:45:35.843400,523,481.35535584822588
2015-10-28 16:45:35.843614,521,481.76741558876682
2015-10-28 16:45:35.843688,520,482.17947532930771
2015-10-28 16:45:35.858358,521,482.59153506984865
2015-10-28 16:45:35.858444,522,483.00359481038953
2015-10-28 16:45:35.858513,524,483.41565455093041
2015-10-28 16:45:35.875152,522,483.8277142914713
2015-10-28 16:45:35.875250,521,484.23977403201218
2015-10-28 16:45:35.875317,521,484.651833772553
2015-10-28 16:45:35.890355,521,485.06389351309389
2015-10-28 16:45:35.890419,523,485.47595325363477
2015-10-28 16:45:35.890457,527,485.8880129941756
2015-10-28 16:45:35.906375,528,486.30007273471648
2015-10-28 16:45:35.906435,527,486.71213247525736
2015-10-28 16:45:35.906473,527,487.12419221579819
2015-10-28 16:45:35.922374,531,487.53625195633907
2015-10-28 16:45:35.922465,536,487.94831169687995
2015-10-28 16:45:35.922517,534,488.36037143742078
2015-10-28 16:45:35.938366,532,488.77243117796166
2015-10-28 16:45:35.938453,536,489.18449091850249
2015-10-28 16:45:35.938515,536,489.59655065904337
2015-10-28 16:45:35.954353,531,490.00861039958426
2015-10-28 16:45:35.954454,527,490.42067014012508
2015-10-28 16:45:35.954529,523,490.83272988066597
2015-10-28 16:45:35.970310,521,491.24478962120685
2015-10-28 16:45:35.970420,518,491.65684936174779
2015-10-28 16:45:35.970492,518,492.06890910228861
2015-10-28 16:45:35.986311,518,492.4809688428295
2015-10-28 16:45:35.986415,517,492.89302858337032
2015-10-28 16:45:35.986483,518,493.30508832391126
2015-10-28 16:45:36.002308,519,493.71714806445215
2015-10-28 16:45:36.002405,519,494.12920780499303
2015-10-28 16:45:36.002466,518,494.54126754553397
2015-10-28 16:45:36.002530,519,494.9533272860748
2015-10-28 16:45:36.018327,523,495.36538702661568
2015-10-28 16:45:36.018381,518,495.77744676715656
2015-10-28 16:45:36.018417,508,496.18950650769739
2015-10-28 16:45:36.034350,497,496.60156624823827
2015-10-28 16:45:36.035894,494,497.01362598877921
2015-10-28 16:45:36.035978,484,497.42568572932004
2015-10-28 16:45:36.050347,473,497.83774546986092
2015-10-28 16:45:36.050432,455,498.2498052104018
2015-10-28 16:45:36.050959,401,498.66609398838978
2015-10-28 16:45:36.066547,367,498.90600261416574
2015-10-28 16:45:36.066641,415,498.83531683170412
2015-10-28 16:45:36.066717,482,498.76463104924255
2015-10-28 16:45:36.082347,516,498.69394526678099
2015-10-28 16:45:36.082443,530,498.62325948431936
2015-10-28 16:45:36.082515,539,498.5525737018578
2015-10-28 16:45:36.098344,543,498.48188791939623
2015-10-28 16:45:36.098452,545,498.41120213693461
2015-10-28 16:45:36.098528,545,498.34051635447304
2015-10-28 16:45:36.114353,547,498.26983057201141
2015-10-28 16:45:36.114443,553,498.19914478954985
2015-10-28 16:45:36.114510,554,498.12845900708828
2015-10-28 16:45:36.130539,555,498.05777322462666
2015-10-28 16:45:36.130626,554,497.98708744216509
2015-10-28 16:45:36.130727,555,497.91640165970352
2015-10-28 16:45:36.146446,556,497.8457158772419
2015-10-28 16:45:36.146533,557,497.77503009478033
2015-10-28 16:45:36.146598,556,497.70434431231877
2015-10-28 16:45:36.162848,558,497.63365852985714
2015-10-28 16:45:36.162944,558,497.56297274739558
2015-10-28 16:45:36.163015,558,497.49228696493401
2015-10-28 16:45:36.178488,561,497.42160118247239
2015-10-28 16:45:36.178588,564,497.35091540001082
2015-10-28 16:45:36.178662,565,497.2802296175492
2015-10-28 16:45:36.194510,565,497.20954383508763
2015-10-28 16:45:36.194711,567,497.13885805262606
2015-10-28 16:45:36.194818,569,497.06817227016444
2015-10-28 16:45:36.210316,571,496.99748648770287
2015-10-28 16:45:36.210379,572,496.92680070524131
2015-10-28 16:45:36.210419,575,496.85611492277968
2015-10-28 16:45:36.226306,578,496.78542914031812
2015-10-28 16:45:36.226412,579,496.71474335785655
2015-10-28 16:45:36.226483,583,496.64405757539492
2015-10-28 16:45:36.242215,589,496.57337179293336
2015-10-28 16:45:36.242327,594,496.50268601047168
2015-10-28 16:45:36.242404,597,496.43200022801011
2015-10-28 16:45:36.258236,605,496.36131444554843
2015-10-28 16:45:36.258365,613,496.29062866308686
2015-10-28 16:45:36.258474,620,496.21994288062518
2015-10-28 16:45:36.258564,623,496.14925709816362
2015-10-28 16:45:36.274459,628,496.07857131570194
2015-10-28 16:45:36.274548,629,496.00788553324037
2015-10-28 16:45:36.274618,629,495.93719975077869
2015-10-28 16:45:36.290287,628,495.86651396831712
2015-10-28 16:45:36.290379,628,495.79582818585544
2015-10-28 16:45:36.290452,625,495.72514240339387
2015-10-28 16:45:36.306273,618,495.65445662093219
2015-10-28 16:45:36.306368,606,495.58377083847063
2015-10-28 16:45:36.306435,592,495.51308505600895
2015-10-28 16:45:36.322267,574,495.44239927354738
2015-10-28 16:45:36.322375,555,495.3717134910857
2015-10-28 16:45:36.322459,537,495.46795932194397
2015-10-28 16:45:36.338226,524,496.00790554555374
2015-10-28 16:45:36.338316,513,496.52522666298864
2015-10-28 16:45:36.338384,502,497.04254778042349
2015-10-28 16:45:36.354601,494,497.55986889785845
2015-10-28 16:45:36.354697,490,498.07719001529324
2015-10-28 16:45:36.354771,487,498.5945111327282
2015-10-28 16:45:36.370477,483,499.11183225016299
2015-10-28 16:45:36.370564,480,499.62915336759795
2015-10-28 16:45:36.370631,480,500.14647448503274
2015-10-28 16:45:36.386229,480,500.6637956024677
2015-10-28 16:45:36.386311,480,501.18111671990255
2015-10-28 16:45:36.386380,480,501.69843783733745
2015-10-28 16:45:36.402403,481,502.2157589547723
2015-10-28 16:45:36.402731,481,502.7330800722072
2015-10-28 16:45:36.402797,481,503.2504011896421
2015-10-28 16:45:36.418199,483,503.76772230707701
2015-10-28 16:45:36.418287,488,504.28504342451191
2015-10-28 16:45:36.418362,490,504.80236454194682
2015-10-28 16:45:36.434293,490,505.31968565938178
2015-10-28 16:45:36.434394,491,505.83700677681668
2015-10-28 16:45:36.434460,493,506.35432789425158
2015-10-28 16:45:36.450199,493,506.87164901168649
2015-10-28 16:45:36.450301,494,507.38897012912139
2015-10-28 16:45:36.450373,497,507.90629124655629
2015-10-28 16:45:36.466178,499,508.4236123639912
2015-10-28 16:45:36.466281,500,508.94093348142616
2015-10-28 16:45:36.466352,500,509.45825459886106
2015-10-28 16:45:36.482180,501,509.97557571629596
2015-10-28 16:45:36.482288,501,510.49289683373087
2015-10-28 16:45:36.482362,501,511.01021795116577
2015-10-28 16:45:36.498140,501,511.52753906860067
2015-10-28 16:45:36.498247,501,512.04486018603563
2015-10-28 16:45:36.498315,502,512.56218130347042
2015-10-28 16:45:36.498385,500,513.07950242090544
2015-10-28 16:45:36.514363,502,513.59682353834046
2015-10-28 16:45:36.514460,503,514.11414465577536
2015-10-28 16:45:36.514536,503,514.63146577321027
2015-10-28 16:45:36.530198,502,515.14878689064528
2015-10-28 16:45:36.530265,503,515.6661080080803
2015-10-28 16:45:36.530303,503,516.18342912551532
2015-10-28 16:45:36.546250,502,516.70075024295022
2015-10-28 16:45:36.546348,501,517.21807136038524
2015-10-28 16:45:36.546421,502,517.73539247782014
2015-10-28 16:45:36.562218,503,518.25271359525516
2015-10-28 16:45:36.562568,503,518.77003471269018
2015-10-28 16:45:36.562710,503,519.28735583012508
2015-10-28 16:45:36.578193,504,519.8046769475601
2015-10-28 16:45:36.578245,505,520.31776902754791
2015-10-28 16:45:36.578280,505,520.90577592744455
2015-10-28 16:45:36.594322,507,521.49378282734108
2015-10-28 16:45:36.594416,507,522.08178972723761
2015-10-28 16:45:36.594514,506,522.66979662713425
2015-10-28 16:45:36.610320,506,523.25780352703077
2015-10-28 16:45:36.610412,507,523.8458104269273
2015-10-28 16:45:36.610476,509,524.43381732682383
2015-10-28 16:45:36.626321,512,525.02182422672047
2015-10-28 16:45:36.626412,513,525.609831126617
2015-10-28 16:45:36.626476,512,526.19783802651364
2015-10-28 16:45:36.642250,513,526.78584492641016
2015-10-28 16:45:36.642340,520,527.37385182630669
2015-10-28 16:45:36.642405,523,527.96185872620333
2015-10-28 16:45:36.658277,522,528.54986562609986
2015-10-28 16:45:36.658571,520,529.1378725259965
2015-10-28 16:45:36.658757,517,529.72587942589303
2015-10-28 16:45:36.674130,511,530.31388632578955
2015-10-28 16:45:36.674186,509,530.90189322568619
2015-10-28 16:45:36.674224,512,531.48990012558272
2015-10-28 16:45:36.690159,513,532.07790702547925
2015-10-28 16:45:36.690252,514,532.66591392537578
2015-10-28 16:45:36.690317,514,533.2539208252723
2015-10-28 16:45:36.706144,514,533.84192772516883
2015-10-28 16:45:36.706250,514,534.42993462506536
2015-10-28 16:45:36.706316,514,535.01794152496188
2015-10-28 16:45:36.722161,515,535.60594842485841
2015-10-28 16:45:36.722326,517,536.19395532475494
2015-10-28 16:45:36.722435,517,536.78196222465158
2015-10-28 16:45:36.738082,511,537.36996912454799
2015-10-28 16:45:36.738188,496,537.95797602444463
2015-10-28 16:45:36.738234,489,538.54598292434116
2015-10-28 16:45:36.738270,482,539.13398982423769
2015-10-28 16:45:36.754105,473,539.72199672413421
2015-10-28 16:45:36.754184,462,540.31000362403063
2015-10-28 16:45:36.754255,431,540.92906880933947
2015-10-28 16:45:36.770171,376,541.3283303007961
2015-10-28 16:45:36.770239,376,541.6896731583995
2015-10-28 16:45:36.770285,444,542.0510160160029
2015-10-28 16:45:36.786116,499,542.41235887360619
2015-10-28 16:45:36.786169,526,542.77370173120948
2015-10-28 16:45:36.786217,541,543.13504458881289
2015-10-28 16:45:36.802160,546,543.49638744641618
2015-10-28 16:45:36.802248,549,543.85773030401958
2015-10-28 16:45:36.802312,551,544.21907316162287
2015-10-28 16:45:36.818094,554,544.58041601922628
2015-10-28 16:45:36.818147,556,544.94175887682957
2015-10-28 16:45:36.818183,556,545.30310173443297
2015-10-28 16:45:36.834087,557,545.66444459203638
2015-10-28 16:45:36.834150,560,546.02578744963967
2015-10-28 16:45:36.834194,562,546.38713030724307
2015-10-28 16:45:36.850075,561,546.74847316484636
2015-10-28 16:45:36.850130,561,546.94288440912987
2015-10-28 16:45:36.850167,563,546.69359526066171
2015-10-28 16:45:36.866138,565,546.46693121836847
2015-10-28 16:45:36.866228,564,546.24026717607535
2015-10-28 16:45:36.866292,563,546.01360313378211
2015-10-28 16:45:36.882402,565,545.78693909148888
2015-10-28 16:45:36.882493,566,545.56027504919575
2015-10-28 16:45:36.882558,566,545.33361100690252
2015-10-28 16:45:36.898330,568,545.10694696460928
2015-10-28 16:45:36.898433,570,544.88028292231616
2015-10-28 16:45:36.898507,571,544.65361888002292
2015-10-28 16:45:36.914362,570,544.4269548377298
2015-10-28 16:45:36.914455,571,544.20029079543656
2015-10-28 16:45:36.914520,575,543.97362675314332
2015-10-28 16:45:36.930353,575,543.7469627108502
2015-10-28 16:45:36.930481,575,543.52029866855696
2015-10-28 16:45:36.930547,579,543.29363462626372
2015-10-28 16:45:36.946215,584,543.0669705839706
2015-10-28 16:45:36.946323,589,542.84030654167736
2015-10-28 16:45:36.946389,595,542.61364249938413
2015-10-28 16:45:36.962171,602,542.386978457091
2015-10-28 16:45:36.962278,609,542.16031441479777
2015-10-28 16:45:36.962343,614,541.93365037250464
2015-10-28 16:45:36.978322,619,541.70698633021141
2015-10-28 16:45:36.978460,626,541.48032228791817
2015-10-28 16:45:36.978527,629,541.25365824562505
2015-10-28 16:45:36.994137,629,541.02699420333192
2015-10-28 16:45:36.994242,628,540.80033016103869
2015-10-28 16:45:36.994307,628,540.57366611874545
2015-10-28 16:45:36.994369,624,540.34700207645233
2015-10-28 16:45:37.010388,617,540.12033803415909
2015-10-28 16:45:37.010478,606,539.89367399186585
2015-10-28 16:45:37.010542,591,539.66700994957273
2015-10-28 16:45:37.026110,573,539.44034590727949
2015-10-28 16:45:37.026198,554,539.21368186498626
2015-10-28 16:45:37.026262,536,538.98701782269313
2015-10-28 16:45:37.042256,520,538.7603537803999
2015-10-28 16:45:37.042344,507,538.53368973810677
2015-10-28 16:45:37.042408,496,538.30702569581354
2015-10-28 16:45:37.058332,488,538.0803616535203
2015-10-28 16:45:37.058424,482,537.85369761122718
2015-10-28 16:45:37.058489,477,537.62703356893394
2015-10-28 16:45:37.074257,472,537.4003695266407
2015-10-28 16:45:37.074347,469,537.17370548434758
2015-10-28 16:45:37.074411,467,536.94704144205434
2015-10-28 16:45:37.090365,465,536.72037739976111
2015-10-28 16:45:37.090457,463,536.49371335746798
2015-10-28 16:45:37.090521,464,536.26704931517475
2015-10-28 16:45:37.106155,465,536.02226793972443
2015-10-28 16:45:37.106245,465,535.88766381138532
2015-10-28 16:45:37.106308,469,535.77209946400137
2015-10-28 16:45:37.122297,473,535.65653511661731
2015-10-28 16:45:37.122421,473,535.54097076923335
2015-10-28 16:45:37.122486,473,535.4254064218494
2015-10-28 16:45:37.138257,475,535.30984207446534
2015-10-28 16:45:37.138378,478,535.1942777270815
2015-10-28 16:45:37.138442,480,535.07871337969743
2015-10-28 16:45:37.154182,480,534.96314903231348
2015-10-28 16:45:37.154273,479,534.84758468492953
2015-10-28 16:45:37.154339,480,534.73202033754558
2015-10-28 16:45:37.170083,479,534.61645599016163
2015-10-28 16:45:37.170208,478,534.50089164277756
2015-10-28 16:45:37.170302,477,534.38532729539361
2015-10-28 16:45:37.186300,477,534.26976294800966
2015-10-28 16:45:37.186400,477,534.1541986006257
2015-10-28 16:45:37.186466,476,534.03863425324175
2015-10-28 16:45:37.202138,475,533.92306990585769
2015-10-28 16:45:37.202245,475,533.80750555847385
2015-10-28 16:45:37.202312,473,533.69194121108978
2015-10-28 16:45:37.218761,471,533.57637686370583
2015-10-28 16:45:37.218880,471,533.46081251632188
2015-10-28 16:45:37.218972,472,533.34524816893781
2015-10-28 16:45:37.233976,471,533.22968382155386
2015-10-28 16:45:37.234155,470,533.11411947416991
2015-10-28 16:45:37.234271,469,532.99855512678585
2015-10-28 16:45:37.234366,469,532.88299077940189
2015-10-28 16:45:37.250044,468,532.76742643201794
2015-10-28 16:45:37.250141,468,532.65186208463388
2015-10-28 16:45:37.250206,467,532.53629773724992
2015-10-28 16:45:37.265948,468,532.42073338986597
2015-10-28 16:45:37.266022,467,532.30516904248202
2015-10-28 16:45:37.266077,465,532.18960469509796
2015-10-28 16:45:37.282247,466,532.074040347714
2015-10-28 16:45:37.282334,466,531.92741771491774
2015-10-28 16:45:37.282542,466,532.00059877597369
2015-10-28 16:45:37.298166,465,532.11169847088286
2015-10-28 16:45:37.298258,465,532.22279816579203
2015-10-28 16:45:37.298324,465,532.33389786070131
2015-10-28 16:45:37.314220,464,532.44499755561037
2015-10-28 16:45:37.314309,464,532.55609725051954
2015-10-28 16:45:37.314374,465,532.66719694542871
2015-10-28 16:45:37.330095,466,532.77829664033777
2015-10-28 16:45:37.330185,466,532.88939633524694
2015-10-28 16:45:37.330249,467,533.00049603015611
2015-10-28 16:45:37.346086,465,533.11159572506517
2015-10-28 16:45:37.346174,462,533.22269541997434
2015-10-28 16:45:37.346239,462,533.33379511488351
2015-10-28 16:45:37.362015,463,533.44489480979269
2015-10-28 16:45:37.362110,465,533.55599450470174
2015-10-28 16:45:37.362175,468,533.66709419961091
2015-10-28 16:45:37.378078,467,533.77819389452009
2015-10-28 16:45:37.378167,464,533.88929358942914
2015-10-28 16:45:37.378231,469,534.00039328433832
2015-10-28 16:45:37.393943,475,534.11149297924749
2015-10-28 16:45:37.394034,476,534.22259267415654
2015-10-28 16:45:37.394098,475,534.33369236906572
2015-10-28 16:45:37.410068,472,534.44479206397489
2015-10-28 16:45:37.410162,465,534.55589175888394
2015-10-28 16:45:37.410226,461,534.66699145379312
2015-10-28 16:45:37.426183,462,534.77809114870229
2015-10-28 16:45:37.426307,462,534.88919084361135
2015-10-28 16:45:37.426372,462,535.00029053852052
2015-10-28 16:45:37.442087,464,535.11139023342969
2015-10-28 16:45:37.442194,465,535.22248992833875
2015-10-28 16:45:37.442260,464,535.33358962324792
2015-10-28 16:45:37.457899,463,535.44468931815709
2015-10-28 16:45:37.458005,464,535.55578901306615
2015-10-28 16:45:37.458070,467,535.66688870797532
2015-10-28 16:45:37.473875,469,535.77798840288449
2015-10-28 16:45:37.473980,461,535.88908809779355
2015-10-28 16:45:37.474046,430,536.01476959195395
2015-10-28 16:45:37.474108,380,536.02967324731878
2015-10-28 16:45:37.490100,369,536.0665085053173
2015-10-28 16:45:37.490190,373,536.08342465510577
2015-10-28 16:45:37.490254,369,536.06015583670353
2015-10-28 16:45:37.506041,367,536.0221442909932
2015-10-28 16:45:37.506129,332,535.80354178050948
2015-10-28 16:45:37.506192,312,535.19108310372792
2015-10-28 16:45:37.522016,383,534.57862442694625
2015-10-28 16:45:37.522105,456,533.96616575016469
2015-10-28 16:45:37.522179,493,533.35370707338302
2015-10-28 16:45:37.537908,500,532.74124839660146
2015-10-28 16:45:37.537997,499,532.12878971981991
2015-10-28 16:45:37.538062,500,531.51633104303824
2015-10-28 16:45:37.554131,501,530.90387236625668
2015-10-28 16:45:37.554236,504,530.29141368947512
2015-10-28 16:45:37.554309,508,529.67895501269345
2015-10-28 16:45:37.569865,510,529.06649633591189
2015-10-28 16:45:37.569953,511,528.45403765913034
2015-10-28 16:45:37.570017,513,527.84157898234866
2015-10-28 16:45:37.586077,515,527.22912030556711
2015-10-28 16:45:37.586168,515,526.61666162878544
2015-10-28 16:45:37.586232,515,526.00420295200388
2015-10-28 16:45:37.602114,517,525.39174427522232
2015-10-28 16:45:37.602231,520,524.77928559844077
2015-10-28 16:45:37.602295,521,524.16682692165909
2015-10-28 16:45:37.617902,521,523.55436824487754
2015-10-28 16:45:37.617992,523,522.94190956809587
2015-10-28 16:45:37.618057,525,522.34756822447139
2015-10-28 16:45:37.633839,524,521.64304963373581
2015-10-28 16:45:37.633930,526,520.91949126204509
2015-10-28 16:45:37.633995,527,520.19593289035436
2015-10-28 16:45:37.650066,529,519.47237451866363
2015-10-28 16:45:37.650171,531,518.7488161469729
2015-10-28 16:45:37.650237,533,518.02525777528206
2015-10-28 16:45:37.665853,535,517.30169940359133
2015-10-28 16:45:37.665945,537,516.5781410319006
2015-10-28 16:45:37.666011,539,515.85458266020987
2015-10-28 16:45:37.681849,543,515.13102428851914
2015-10-28 16:45:37.682019,550,514.40746591682841
2015-10-28 16:45:37.682103,555,513.6839075451378
2015-10-28 16:45:37.698018,560,512.96034917344696
2015-10-28 16:45:37.698204,566,512.23679080175623
2015-10-28 16:45:37.698271,574,511.51323243006556
2015-10-28 16:45:37.713957,579,510.78967405837483
2015-10-28 16:45:37.714116,584,510.06611568668416
2015-10-28 16:45:37.714181,589,509.34255731499348
2015-10-28 16:45:37.714243,594,508.61899894330281
2015-10-28 16:45:37.730136,596,507.89544057161214
2015-10-28 16:45:37.730229,597,507.17188219992158
2015-10-28 16:45:37.730294,598,506.44832382823091
2015-10-28 16:45:37.746021,597,505.72476545654024
2015-10-28 16:45:37.746112,593,505.00120708484957
2015-10-28 16:45:37.746177,586,504.2776487131589
2015-10-28 16:45:37.761990,576,503.55409034146822
2015-10-28 16:45:37.762077,563,502.83053196977755
2015-10-28 16:45:37.762142,546,502.10697359808688
2015-10-28 16:45:37.778020,528,501.38341522639621
2015-10-28 16:45:37.778111,511,500.65985685470554
2015-10-28 16:45:37.778176,496,499.93629848301487
2015-10-28 16:45:37.793836,482,499.21274011132419
2015-10-28 16:45:37.793982,473,498.48918173963352
2015-10-28 16:45:37.794154,465,497.76562336794291
2015-10-28 16:45:37.810075,460,497.04206499625224
2015-10-28 16:45:37.810164,456,496.31850662456156
2015-10-28 16:45:37.810227,454,495.59494825287089
2015-10-28 16:45:37.826114,454,494.87138988118022
2015-10-28 16:45:37.826221,453,494.14783150948961
2015-10-28 16:45:37.826287,452,493.42427313779893
2015-10-28 16:45:37.842095,453,492.70071476610826
2015-10-28 16:45:37.842247,456,491.97715639441759
2015-10-28 16:45:37.842374,455,491.25359802272692
2015-10-28 16:45:37.858050,455,490.53003965103625
2015-10-28 16:45:37.858141,458,489.80648127934558
2015-10-28 16:45:37.858205,461,489.0829229076549
2015-10-28 16:45:37.873939,462,488.35936453596423
2015-10-28 16:45:37.874031,462,487.63580616427356
2015-10-28 16:45:37.874096,465,486.91224779258289
2015-10-28 16:45:37.889745,466,486.18868942089216
2015-10-28 16:45:37.889837,466,485.46513104920149
2015-10-28 16:45:37.889928,467,484.74157267751082
2015-10-28 16:45:37.905695,468,484.01801430582015
2015-10-28 16:45:37.905760,469,483.29445593412947
2015-10-28 16:45:37.905805,468,482.5708975624388
2015-10-28 16:45:37.921995,469,481.84733919074807
2015-10-28 16:45:37.922142,471,481.1237808190574
2015-10-28 16:45:37.922209,473,480.40022244736662
2015-10-28 16:45:37.938028,472,479.67666407567606
2015-10-28 16:45:37.938188,472,478.95310570398539
2015-10-28 16:45:37.938254,472,478.22954733229466
2015-10-28 16:45:37.953868,472,477.50598896060399
2015-10-28 16:45:37.953974,471,476.7824305889132
2015-10-28 16:45:37.954044,472,476.05887221722253
2015-10-28 16:45:37.970009,473,475.33531384553186
2015-10-28 16:45:37.970165,472,474.61175547384119
2015-10-28 16:45:37.970231,470,473.88819710215057
2015-10-28 16:45:37.970292,471,473.16463873045979
2015-10-28 16:45:37.985978,471,472.44108035876911
2015-10-28 16:45:37.986066,470,471.71752198707844
2015-10-28 16:45:37.986130,470,470.99396361538777
2015-10-28 16:45:38.001820,472,470.25582344444592
2015-10-28 16:45:38.002082,473,469.62846111229942
2015-10-28 16:45:38.002155,472,468.97916717751929
2015-10-28 16:45:38.018069,472,468.34979235094931
2015-10-28 16:45:38.018261,473,467.76060249257
2015-10-28 16:45:38.018459,473,467.18615536149878
2015-10-28 16:45:38.033813,472,466.79229919520088
2015-10-28 16:45:38.033870,474,466.79229919520088
2015-10-28 16:45:38.033907,474,466.79229919520088
2015-10-28 16:45:38.049906,474,466.79229919520088
2015-10-28 16:45:38.049996,473,466.79229919520088
2015-10-28 16:45:38.050060,475,466.79229919520088
2015-10-28 16:45:38.065809,475,466.79229919520088
2015-10-28 16:45:38.065871,475,466.79229919520088
2015-10-28 16:45:38.065915,475,466.79229919520088
2015-10-28 16:45:38.081795,476,466.79229919520088
2015-10-28 16:45:38.081890,478,466.79229919520088
2015-10-28 16:45:38.081955,477,466.79229919520088
2015-10-28 16:45:38.097842,477,466.79229919520088
2015-10-28 16:45:38.097932,478,466.79229919520088
2015-10-28 16:45:38.097997,479,466.79229919520088
2015-10-28 16:45:38.113796,479,466.79229919520088
2015-10-28 16:45:38.113944,479,466.79229919520088
2015-10-28 16:45:38.114061,482,466.79229919520088
2015-10-28 16:45:38.129713,483,466.79229919520088
2015-10-28 16:45:38.129770,480,466.79229919520088
2015-10-28 16:45:38.129806,478,466.79229919520088
2015-10-28 16:45:38.145772,481,466.79229919520088
2015-10-28 16:45:38.145909,484,466.79229919520088
2015-10-28 16:45:38.146072,486,466.79229919520088
2015-10-28 16:45:38.161825,487,466.79229919520088
2015-10-28 16:45:38.162048,486,466.79229919520088
2015-10-28 16:45:38.162117,486,466.79229919520088
2015-10-28 16:45:38.177703,493,466.79229919520088
2015-10-28 16:45:38.178189,496,466.79229919520088
2015-10-28 16:45:38.178335,495,466.79229919520088
2015-10-28 16:45:38.193653,492,466.79229919520088
2015-10-28 16:45:38.193763,488,466.79229919520088
2015-10-28 16:45:38.193833,484,466.79229919520088
2015-10-28 16:45:38.209747,484,466.79229919520088
2015-10-28 16:45:38.210172,483,466.79229919520088
2015-10-28 16:45:38.219402,484,466.79229919520088
2015-10-28 16:45:38.228533,485,466.79229919520088
2015-10-28 16:45:38.228629,487,466.79229919520088
2015-10-28 16:45:38.228698,486,466.79229919520088
2015-10-28 16:45:38.228770,486,466.79229919520088
2015-10-28 16:45:38.241987,487,466.79229919520088
2015-10-28 16:45:38.242430,488,466.79229919520088
2015-10-28 16:45:38.242520,489,466.79229919520088
2015-10-28 16:45:38.257758,487,466.79229919520088
2015-10-28 16:45:38.257882,476,466.79229919520088
2015-10-28 16:45:38.257968,435,466.79229919520088
2015-10-28 16:45:38.273644,407,466.79229919520088
2015-10-28 16:45:38.273698,412,466.79229919520088
2015-10-28 16:45:38.273734,410,466.79229919520088
2015-10-28 16:45:38.289669,409,466.79229919520088
2015-10-28 16:45:38.289730,390,466.79229919520088
2015-10-28 16:45:38.289767,335,466.72316134787849
2015-10-28 16:45:38.306459,353,466.67214083371329
2015-10-28 16:45:38.306547,432,466.62112031954808
2015-10-28 16:45:38.306613,492,466.57009980538288
2015-10-28 16:45:38.321628,516,466.51907929121768
2015-10-28 16:45:38.321682,520,466.46805877705248
2015-10-28 16:45:38.321718,518,466.41703826288722
2015-10-28 16:45:38.337602,518,466.36601774872202
2015-10-28 16:45:38.337655,522,466.31499723455681
2015-10-28 16:45:38.337692,523,466.26397672039161
2015-10-28 16:45:38.353688,524,466.21295620622641
2015-10-28 16:45:38.353759,527,466.16193569206121
2015-10-28 16:45:38.353810,529,466.110915177896
2015-10-28 16:45:38.369627,531,466.05989466373074
2015-10-28 16:45:38.369762,530,466.00887414956554
2015-10-28 16:45:38.369827,533,465.95785363540034
2015-10-28 16:45:38.385611,535,465.90683312123514
2015-10-28 16:45:38.385694,536,465.85581260706994
2015-10-28 16:45:38.385757,537,465.80479209290473
2015-10-28 16:45:38.401666,539,465.75377157873947
2015-10-28 16:45:38.401754,539,465.70275106457427
2015-10-28 16:45:38.401818,540,465.65173055040907
2015-10-28 16:45:38.417591,539,465.60071003624387
2015-10-28 16:45:38.417667,542,465.54968952207867
2015-10-28 16:45:38.417705,543,465.49866900791346
2015-10-28 16:45:38.433595,545,465.4476484937482
2015-10-28 16:45:38.433658,546,465.396627979583
2015-10-28 16:45:38.433695,548,465.3456074654178
2015-10-28 16:45:38.449597,552,465.2945869512526
2015-10-28 16:45:38.449661,554,465.24356643708734
2015-10-28 16:45:38.449697,556,465.19254592292208
2015-10-28 16:45:38.449733,559,465.14152540875682
2015-10-28 16:45:38.465622,563,465.09050489459162
2015-10-28 16:45:38.465677,568,465.0394843804263
2015-10-28 16:45:38.465716,574,464.9884638662611
2015-10-28 16:45:38.481598,581,464.93744335209584
2015-10-28 16:45:38.481694,586,464.88642283793064
2015-10-28 16:45:38.481762,590,464.83540232376532
2015-10-28 16:45:38.497628,595,464.78438180960012
2015-10-28 16:45:38.497680,602,464.73336129543486
2015-10-28 16:45:38.497717,608,464.6823407812696
2015-10-28 16:45:38.513567,612,464.63132026710434
2015-10-28 16:45:38.513620,614,464.58029975293914
2015-10-28 16:45:38.513657,616,464.52927923877382
2015-10-28 16:45:38.529563,616,464.47825872460862
2015-10-28 16:45:38.529616,613,464.42723821044336
2015-10-28 16:45:38.529652,609,464.37621769627816
2015-10-28 16:45:38.545743,602,464.32519718211284
2015-10-28 16:45:38.545891,590,464.27417666794764
2015-10-28 16:45:38.546083,574,464.24977468237671
2015-10-28 16:45:38.561530,558,464.5452115953359
2015-10-28 16:45:38.561615,541,464.83433896022427
2015-10-28 16:45:38.561679,522,465.12346632511276
2015-10-28 16:45:38.577563,507,465.41259369000119
2015-10-28 16:45:38.577668,496,465.70172105488967
2015-10-28 16:45:38.577734,487,465.9908484197781
2015-10-28 16:45:38.593782,479,466.27997578466653
2015-10-28 16:45:38.594045,475,466.56910314955496
2015-10-28 16:45:38.594129,473,466.85823051444345
2015-10-28 16:45:38.609874,473,467.14735787933188
2015-10-28 16:45:38.610118,471,467.43648524422036
2015-10-28 16:45:38.610193,469,467.72561260910874
2015-10-28 16:45:38.625984,471,468.01473997399722
2015-10-28 16:45:38.626145,472,468.30386733888565
2015-10-28 16:45:38.626215,473,468.59299470377414
2015-10-28 16:45:38.641606,475,468.88212206866262
2015-10-28 16:45:38.642080,476,469.171249433551
2015-10-28 16:45:38.642172,476,469.46037679843948
2015-10-28 16:45:38.657535,480,469.74950416332791
2015-10-28 16:45:38.657679,484,470.0386315282164
2015-10-28 16:45:38.657786,487,470.32775889310477
2015-10-28 16:45:38.673510,488,470.61688625799326
2015-10-28 16:45:38.673670,488,470.90601362288169
2015-10-28 16:45:38.673780,490,471.19514098777017
2015-10-28 16:45:38.689562,491,471.48426835265855
2015-10-28 16:45:38.689802,492,471.77339571754703
2015-10-28 16:45:38.689987,491,472.06252308243546
2015-10-28 16:45:38.690057,494,472.35165044732395
2015-10-28 16:45:38.705781,497,472.64077781221243
2015-10-28 16:45:38.705995,496,472.92990517710086
2015-10-28 16:45:38.706187,496,473.21903254198924
2015-10-28 16:45:38.721759,498,473.50815990687767
2015-10-28 16:45:38.721848,499,473.79728727176604
2015-10-28 16:45:38.721913,499,474.08641463665447
2015-10-28 16:45:38.737604,499,474.3755420015429
2015-10-28 16:45:38.737796,501,474.66466936643127
2015-10-28 16:45:38.737875,500,474.9537967313197
2015-10-28 16:45:38.753779,499,475.24292409620818
2015-10-28 16:45:38.754002,499,475.53205146109661
2015-10-28 16:45:38.754145,502,475.82117882598499
2015-10-28 16:45:38.769733,503,476.11030619087342
2015-10-28 16:45:38.769951,502,476.39943355576179
2015-10-28 16:45:38.770027,501,476.68856092065022
2015-10-28 16:45:38.785677,500,476.97768828553865
2015-10-28 16:45:38.785832,499,477.26681565042702
2015-10-28 16:45:38.785906,500,477.55594301531545
2015-10-28 16:45:38.801708,501,477.84507038020388
2015-10-28 16:45:38.801865,501,478.13419774509225
2015-10-28 16:45:38.801990,501,478.42332510998068
2015-10-28 16:45:38.817491,501,478.71245247486911
2015-10-28 16:45:38.817580,502,479.07071768707993
2015-10-28 16:45:38.817645,504,479.41086556613362
2015-10-28 16:45:38.833797,505,479.75101344518725
2015-10-28 16:45:38.833915,505,480.09116132424094
2015-10-28 16:45:38.833998,507,480.43130920329452
2015-10-28 16:45:38.849687,508,480.77145708234821
2015-10-28 16:45:38.849777,508,481.11160496140184
2015-10-28 16:45:38.849842,509,481.45175284045553
2015-10-28 16:45:38.865449,511,481.79190071950916
2015-10-28 16:45:38.865603,512,482.13204859856285
2015-10-28 16:45:38.865697,512,482.47219647761648
2015-10-28 16:45:38.881804,513,482.81234435667017
2015-10-28 16:45:38.881899,514,483.1524922357238
2015-10-28 16:45:38.881964,514,483.49264011477749
2015-10-28 16:45:38.897694,514,483.83278799383118
2015-10-28 16:45:38.897813,516,484.17293587288486
2015-10-28 16:45:38.897878,517,484.51308375193855
2015-10-28 16:45:38.913470,516,484.85323163099224
2015-10-28 16:45:38.913576,516,485.19337951004587
2015-10-28 16:45:38.913642,517,485.53352738909956
2015-10-28 16:45:38.929490,517,485.87367526815325
2015-10-28 16:45:38.929598,520,486.21382314720694
2015-10-28 16:45:38.929663,522,486.55397102626057
2015-10-28 16:45:38.945538,524,486.89411890531426
2015-10-28 16:45:38.945645,526,487.23426678436795
2015-10-28 16:45:38.945710,526,487.57441466342163
2015-10-28 16:45:38.945771,528,487.91456254247527
2015-10-28 16:45:38.961593,532,488.25471042152896
2015-10-28 16:45:38.961682,532,488.59485830058264
2015-10-28 16:45:38.961867,529,488.93500617963633
2015-10-28 16:45:38.977502,533,489.27515405869008
2015-10-28 16:45:38.977592,537,489.61530193774365
2015-10-28 16:45:38.977667,533,489.95544981679734
2015-10-28 16:45:38.993699,526,490.29559769585103
2015-10-28 16:45:38.993870,521,490.63574557490466
2015-10-28 16:45:38.993940,521,490.97589345395835
2015-10-28 16:45:39.009640,522,491.31604133301204
2015-10-28 16:45:39.009730,522,491.65618921206567
2015-10-28 16:45:39.009904,523,491.99633709111936
2015-10-28 16:45:39.025652,523,492.33648497017305
2015-10-28 16:45:39.025853,522,492.67663284922668
2015-10-28 16:45:39.025932,522,493.01678072828037
2015-10-28 16:45:39.041529,522,493.35692860733405
2015-10-28 16:45:39.041619,522,493.69707648638769
2015-10-28 16:45:39.041693,521,494.03722436544138
2015-10-28 16:45:39.057568,523,494.37737224449506
2015-10-28 16:45:39.057659,521,494.71752012354875
2015-10-28 16:45:39.057723,508,495.05766800260244
2015-10-28 16:45:39.073506,486,495.39781588165607
2015-10-28 16:45:39.073595,483,495.71134523211538
2015-10-28 16:45:39.073668,482,495.70503568404467
2015-10-28 16:45:39.089575,474,495.70503568404467
2015-10-28 16:45:39.089752,463,495.70503568404467
2015-10-28 16:45:39.089927,422,495.70503568404467
2015-10-28 16:45:39.105761,372,495.68668940663071
2015-10-28 16:45:39.105903,406,495.66834312921674
2015-10-28 16:45:39.106004,477,495.64999685180283
2015-10-28 16:45:39.121469,518,495.63165057438886
2015-10-28 16:45:39.121690,539,495.61330429697495
2015-10-28 16:45:39.121758,545,495.59495801956098
2015-10-28 16:45:39.137437,546,495.57661174214701
2015-10-28 16:45:39.137532,548,495.5582654647331
2015-10-28 16:45:39.137596,551,495.53991918731913
2015-10-28 16:45:39.153444,552,495.52157290990516
2015-10-28 16:45:39.153666,555,495.50322663249125
2015-10-28 16:45:39.153890,558,495.48488035507728
2015-10-28 16:45:39.169465,559,495.46653407766331
2015-10-28 16:45:39.169573,559,495.4481878002494
2015-10-28 16:45:39.169638,560,495.42984152283543
2015-10-28 16:45:39.185293,560,495.41149524542152
2015-10-28 16:45:39.185373,561,495.39314896800755
2015-10-28 16:45:39.185420,559,495.37480269059358
2015-10-28 16:45:39.185464,561,495.35645641317967
2015-10-28 16:45:39.201467,565,495.3381101357657
2015-10-28 16:45:39.201556,564,495.31976385835173
2015-10-28 16:45:39.201620,564,495.30141758093782
2015-10-28 16:45:39.217708,564,495.28307130352385
2015-10-28 16:45:39.217946,567,495.26472502610989
2015-10-28 16:45:39.218210,569,495.24637874869597
2015-10-28 16:45:39.233528,569,495.22803247128201
2015-10-28 16:45:39.233616,572,495.20968619386804
2015-10-28 16:45:39.233839,575,495.19133991645413
2015-10-28 16:45:39.249448,577,495.17299363904016
2015-10-28 16:45:39.249537,579,495.15464736162625
2015-10-28 16:45:39.249602,582,495.13630108421228
2015-10-28 16:45:39.265697,585,495.11795480679831
2015-10-28 16:45:39.265807,589,495.0996085293844
2015-10-28 16:45:39.265873,592,495.08126225197049
2015-10-28 16:45:39.281621,598,495.06291597455663
2015-10-28 16:45:39.281712,602,495.04456969714278
2015-10-28 16:45:39.281775,606,495.02622341972886
2015-10-28 16:45:39.297443,613,495.00787714231501
2015-10-28 16:45:39.297540,620,494.9895308649011
2015-10-28 16:45:39.297605,625,494.97118458748724
2015-10-28 16:45:39.313497,628,494.95283831007339
2015-10-28 16:45:39.313587,631,494.93449203265948
2015-10-28 16:45:39.313652,633,494.91614575524562
2015-10-28 16:45:39.329469,634,494.89779947783177
2015-10-28 16:45:39.329559,632,494.87945320041786
2015-10-28 16:45:39.329624,631,494.84040139939589
2015-10-28 16:45:39.345581,626,495.10272441197611
2015-10-28 16:45:39.345711,615,495.76414798795622
2015-10-28 16:45:39.345776,601,496.38545461194548
2015-10-28 16:45:39.361318,587,497.00676123593479
2015-10-28 16:45:39.361410,571,497.6280678599241
2015-10-28 16:45:39.361475,553,498.24937448391336
2015-10-28 16:45:39.377263,535,498.87068110790267
2015-10-28 16:45:39.377317,521,499.49198773189198
2015-10-28 16:45:39.377353,509,500.11329435588124
2015-10-28 16:45:39.393267,499,500.73460097987055
2015-10-28 16:45:39.393374,492,501.35590760385986
2015-10-28 16:45:39.393448,489,501.97721422784912
2015-10-28 16:45:39.409235,484,502.59852085183843
2015-10-28 16:45:39.409390,479,503.21982747582774
2015-10-28 16:45:39.409466,479,503.841134099817
2015-10-28 16:45:39.425285,480,504.46244072380631
2015-10-28 16:45:39.425472,480,505.08374734779562
2015-10-28 16:45:39.425604,478,505.70505397178488
2015-10-28 16:45:39.425722,479,506.32636059577419
2015-10-28 16:45:39.441335,482,506.9476672197635
2015-10-28 16:45:39.441427,485,507.5689738437527
2015-10-28 16:45:39.441500,487,508.19028046774201
2015-10-28 16:45:39.457265,489,508.81158709173133
2015-10-28 16:45:39.457342,492,509.43289371572058
2015-10-28 16:45:39.457396,494,510.05420033970989
2015-10-28 16:45:39.473347,495,510.67550696369921
2015-10-28 16:45:39.473421,498,511.29681358768846
2015-10-28 16:45:39.473482,502,511.91812021167777
2015-10-28 16:45:39.489433,505,512.53942683566709
2015-10-28 16:45:39.489523,506,513.16073345965629
2015-10-28 16:45:39.489586,509,513.7820400836456
2015-10-28 16:45:39.505379,512,514.40334670763491
2015-10-28 16:45:39.505469,511,515.02465333162422
2015-10-28 16:45:39.505534,511,515.64595995561353
2015-10-28 16:45:39.521235,513,516.26726657960285
2015-10-28 16:45:39.521297,515,516.88857320359205
2015-10-28 16:45:39.521341,517,517.50987982758136
2015-10-28 16:45:39.537390,517,518.13118645157056
2015-10-28 16:45:39.537479,520,518.75249307555987
2015-10-28 16:45:39.537542,519,519.37379969954907
2015-10-28 16:45:39.553410,518,519.99510632353838
2015-10-28 16:45:39.553498,518,520.61641294752758
2015-10-28 16:45:39.553563,519,521.23771957151689
2015-10-28 16:45:39.569290,520,521.85902619550609
2015-10-28 16:45:39.569442,520,522.4803328194954
2015-10-28 16:45:39.569549,519,523.1016394434846
2015-10-28 16:45:39.585596,518,523.72294606747391
2015-10-28 16:45:39.585688,518,524.34425269146311
2015-10-28 16:45:39.585752,516,524.96555931545242
2015-10-28 16:45:39.601563,515,525.58686593944162
2015-10-28 16:45:39.601674,516,526.20817256343094
2015-10-28 16:45:39.601769,515,526.82947918742013
2015-10-28 16:45:39.617192,514,527.45078581140945
2015-10-28 16:45:39.617290,515,528.07209243539864
2015-10-28 16:45:39.617338,516,528.71174533680176
2015-10-28 16:45:39.633128,516,529.35139823820498
2015-10-28 16:45:39.633302,517,529.99105113960809
2015-10-28 16:45:39.633352,516,530.6307040410112
2015-10-28 16:45:39.649167,516,531.27035694241431
2015-10-28 16:45:39.649232,516,531.91000984381753
2015-10-28 16:45:39.649335,515,532.54966274522053
2015-10-28 16:45:39.665439,515,533.18931564662375
2015-10-28 16:45:39.665545,516,533.82896854802686
2015-10-28 16:45:39.665610,514,534.46862144942997
2015-10-28 16:45:39.665709,513,535.10827435083309
2015-10-28 16:45:39.681617,515,535.74792725223631
2015-10-28 16:45:39.681825,516,536.38758015363942
2015-10-28 16:45:39.682057,517,537.02723305504253
2015-10-28 16:45:39.697402,521,537.66688595644575
2015-10-28 16:45:39.697493,523,538.30653885784886
2015-10-28 16:45:39.697557,522,538.94619175925197
2015-10-28 16:45:39.713568,523,539.5858446606552
2015-10-28 16:45:39.713767,529,540.22549756205831
2015-10-28 16:45:39.713963,529,540.86515046346142
2015-10-28 16:45:39.729253,527,541.50480336486464
2015-10-28 16:45:39.729675,526,542.14445626626775
2015-10-28 16:45:39.730131,529,542.78410916767098
2015-10-28 16:45:39.745379,528,543.42376206907397
2015-10-28 16:45:39.745469,522,544.0634149704772
2015-10-28 16:45:39.745566,517,544.70306787188042
2015-10-28 16:45:39.761211,515,545.34272077328342
2015-10-28 16:45:39.761326,514,545.98237367468664
2015-10-28 16:45:39.761423,511,546.62202657608975
2015-10-28 16:45:39.777173,508,547.26167947749298
2015-10-28 16:45:39.777319,509,547.90133237889609
2015-10-28 16:45:39.777367,509,548.5409852802992
2015-10-28 16:45:39.793210,510,549.18063818170242
2015-10-28 16:45:39.793381,511,549.82029108310553
2015-10-28 16:45:39.793452,512,550.45994398450864
2015-10-28 16:45:39.809113,511,551.09959688591186
2015-10-28 16:45:39.809227,515,551.73924978731498
2015-10-28 16:45:39.809300,515,552.37890268871809
2015-10-28 16:45:39.825450,510,553.01855559012131
2015-10-28 16:45:39.825608,492,553.65820849152442
2015-10-28 16:45:39.825776,487,554.29786139292764
2015-10-28 16:45:39.841139,479,554.93751429433075
2015-10-28 16:45:39.841253,469,555.57716719573386
2015-10-28 16:45:39.841341,455,556.22717285894112
2015-10-28 16:45:39.857135,413,556.89971071646642
2015-10-28 16:45:39.857227,363,557.2610286784128
2015-10-28 16:45:39.857369,391,557.29640891312908
2015-10-28 16:45:39.873194,463,556.9326885844456
2015-10-28 16:45:39.873355,504,556.60908520775286
2015-10-28 16:45:39.873449,526,556.28548183106022
2015-10-28 16:45:39.889115,536,555.96187845436748
2015-10-28 16:45:39.889270,539,555.63827507767485
2015-10-28 16:45:39.889322,540,555.3146717009821
2015-10-28 16:45:39.905121,543,554.99106832428936
2015-10-28 16:45:39.905355,546,554.66746494759673
2015-10-28 16:45:39.905503,547,554.34386157090398
2015-10-28 16:45:39.921076,548,554.02025819421135
2015-10-28 16:45:39.921252,550,553.69665481751861
2015-10-28 16:45:39.921327,550,553.37305144082586
2015-10-28 16:45:39.921395,549,553.04944806413323
2015-10-28 16:45:39.937458,551,552.72584468744049
2015-10-28 16:45:39.937547,554,552.40224131074785
2015-10-28 16:45:39.937612,554,552.07863793405511
2015-10-28 16:45:39.953254,554,551.75503455736236
2015-10-28 16:45:39.953345,556,551.43143118066973
2015-10-28 16:45:39.953410,557,551.10782780397699
2015-10-28 16:45:39.969231,556,550.78422442728436
2015-10-28 16:45:39.969319,555,550.46062105059161
2015-10-28 16:45:39.969384,556,550.13701767389887
2015-10-28 16:45:39.985420,559,549.81341429720624
2015-10-28 16:45:39.985510,560,549.48981092051349
2015-10-28 16:45:39.985573,562,549.16620754382086
2015-10-28 16:45:40.001473,563,548.84260416712812
2015-10-28 16:45:40.001562,564,548.51900079043537
2015-10-28 16:45:40.001645,565,548.19539741374274
2015-10-28 16:45:40.017473,566,547.87179403704999
2015-10-28 16:45:40.017590,569,547.54819066035736
2015-10-28 16:45:40.017654,573,547.22458728366462
2015-10-28 16:45:40.033412,575,546.90098390697187
2015-10-28 16:45:40.033503,579,546.57738053027924
2015-10-28 16:45:40.033568,585,546.2537771535865
2015-10-28 16:45:40.049366,592,545.93017377689387
2015-10-28 16:45:40.049455,597,545.60657040020112
2015-10-28 16:45:40.049535,602,545.28296702350838
2015-10-28 16:45:40.065307,608,544.95936364681575
2015-10-28 16:45:40.065396,614,544.635760270123
2015-10-28 16:45:40.065459,616,544.31215689343037
2015-10-28 16:45:40.081320,618,543.98855351673762
2015-10-28 16:45:40.081414,620,543.66495014004488
2015-10-28 16:45:40.081479,617,543.34134676335225
2015-10-28 16:45:40.097324,613,543.0177433866595
2015-10-28 16:45:40.097420,607,542.69414000996687
2015-10-28 16:45:40.097484,598,542.37053663327413
2015-10-28 16:45:40.113385,583,542.04693325658138
2015-10-28 16:45:40.113482,565,541.72332987988875
2015-10-28 16:45:40.113547,546,541.39972650319601
2015-10-28 16:45:40.129164,528,541.07612312650338
2015-10-28 16:45:40.129270,510,540.75251974981063
2015-10-28 16:45:40.129334,497,540.42891637311789
2015-10-28 16:45:40.145140,486,540.10531299642525
2015-10-28 16:45:40.145247,478,539.96521063107036
2015-10-28 16:45:40.145313,470,539.78644633700708
2015-10-28 16:45:40.161182,464,539.60768204294379
2015-10-28 16:45:40.161290,458,539.42891774888051
2015-10-28 16:45:40.161355,455,539.25015345481722
2015-10-28 16:45:40.161416,452,539.07527144643041
2015-10-28 16:45:40.177189,452,538.9003894380437
2015-10-28 16:45:40.177251,453,538.72550742965689
2015-10-28 16:45:40.177296,453,538.55062542127007
2015-10-28 16:45:40.193367,452,538.37574341288337
2015-10-28 16:45:40.193457,452,538.20086140449655
2015-10-28 16:45:40.193533,454,538.02597939610973
2015-10-28 16:45:40.209351,455,537.85109738772303
2015-10-28 16:45:40.209440,457,537.67621537933621
2015-10-28 16:45:40.209504,459,537.5013333709494
2015-10-28 16:45:40.225334,461,537.32645136256258
2015-10-28 16:45:40.225423,462,537.15156935417588
2015-10-28 16:45:40.225487,463,536.97668734578906
2015-10-28 16:45:40.241189,464,536.80180533740224
2015-10-28 16:45:40.241318,466,536.62692332901543
2015-10-28 16:45:40.241383,465,536.45204132062861
2015-10-28 16:45:40.257384,464,536.27715931224191
2015-10-28 16:45:40.257474,464,536.10227730385509
2015-10-28 16:45:40.257538,463,535.92739529546827
2015-10-28 16:45:40.273307,462,535.75251328708146
2015-10-28 16:45:40.273397,462,535.57763127869475
2015-10-28 16:45:40.273461,465,535.40274927030794
2015-10-28 16:45:40.289269,463,535.22786726192112
2015-10-28 16:45:40.289361,463,535.0529852535343
2015-10-28 16:45:40.289425,464,534.87810324514749
2015-10-28 16:45:40.305100,465,534.70322123676078
2015-10-28 16:45:40.305190,465,534.52833922837385
2015-10-28 16:45:40.305255,461,534.35345721998715
2015-10-28 16:45:40.321241,459,534.17857521160033
2015-10-28 16:45:40.321334,459,534.00369320321363
2015-10-28 16:45:40.321400,459,533.8288111948267
2015-10-28 16:45:40.337275,458,533.65392918644
2015-10-28 16:45:40.337369,458,533.47904717805307
2015-10-28 16:45:40.337433,459,533.30416516966636
2015-10-28 16:45:40.353382,458,533.12928316127943
2015-10-28 16:45:40.353478,457,532.95440115289261
2015-10-28 16:45:40.353544,458,532.77951914450591
2015-10-28 16:45:40.369282,458,532.60463713611898
2015-10-28 16:45:40.369407,457,532.41940236592814
2015-10-28 16:45:40.369475,457,532.21163540141924
2015-10-28 16:45:40.385300,459,532.33579385609744
2015-10-28 16:45:40.385446,460,532.48451522440337
2015-10-28 16:45:40.385512,459,532.6332365927093
2015-10-28 16:45:40.401005,457,532.78195796101522
2015-10-28 16:45:40.401081,457,532.93067932932115
2015-10-28 16:45:40.401126,455,533.07940069762708
2015-10-28 16:45:40.401168,454,533.22812206593301
2015-10-28 16:45:40.417280,454,533.37684343423894
2015-10-28 16:45:40.417368,456,533.52556480254486
2015-10-28 16:45:40.417432,456,533.67428617085079
2015-10-28 16:45:40.433340,456,533.82300753915672
2015-10-28 16:45:40.433486,457,533.97172890746265
2015-10-28 16:45:40.433551,458,534.12045027576858
2015-10-28 16:45:40.449420,459,534.2691716440745
2015-10-28 16:45:40.449510,458,534.41789301238043
2015-10-28 16:45:40.449575,458,534.56661438068636
2015-10-28 16:45:40.465215,462,534.71533574899229
2015-10-28 16:45:40.465303,467,534.86405711729822
2015-10-28 16:45:40.465368,470,535.01277848560414
2015-10-28 16:45:40.481330,470,535.16149985391007
2015-10-28 16:45:40.481420,471,535.31022122221589
2015-10-28 16:45:40.481484,473,535.45894259052181
2015-10-28 16:45:40.497061,477,535.60766395882774
2015-10-28 16:45:40.497149,475,535.75638532713367
2015-10-28 16:45:40.497213,472,535.9051066954396
2015-10-28 16:45:40.513220,475,536.05382806374553
2015-10-28 16:45:40.513311,479,536.20254943205146
2015-10-28 16:45:40.513375,478,536.3512708003575
2015-10-28 16:45:40.529240,472,536.49999216866343
2015-10-28 16:45:40.529331,465,536.64871353696924
2015-10-28 16:45:40.529396,463,536.79743490527517
2015-10-28 16:45:40.545200,463,536.9461562735811
2015-10-28 16:45:40.545290,463,537.09487764188702
2015-10-28 16:45:40.545354,465,537.24359901019284
2015-10-28 16:45:40.561173,466,537.39232037849877
2015-10-28 16:45:40.561295,467,537.54104174680469
2015-10-28 16:45:40.561360,468,537.68976311511062
2015-10-28 16:45:40.577139,467,537.83848448341655
2015-10-28 16:45:40.577230,468,537.98720585172236
2015-10-28 16:45:40.577294,471,538.13592722002829
2015-10-28 16:45:40.593280,472,538.28464858833422
2015-10-28 16:45:40.593412,466,538.43336995664015
2015-10-28 16:45:40.593477,440,538.59762046765206
2015-10-28 16:45:40.609006,394,538.75422421482494
2015-10-28 16:45:40.609203,385,538.87850047701693
2015-10-28 16:45:40.609336,390,539.00441758620502
2015-10-28 16:45:40.625125,385,539.12042159721648
2015-10-28 16:45:40.625232,383,539.22616575828079
2015-10-28 16:45:40.625298,347,539.08284971513353
2015-10-28 16:45:40.641207,318,538.62339123541904
2015-10-28 16:45:40.641349,383,538.16393275570465
2015-10-28 16:45:40.641414,459,537.70447427599015
2015-10-28 16:45:40.657093,498,537.24501579627565
2015-10-28 16:45:40.657202,507,536.78555731656115
2015-10-28 16:45:40.657267,507,536.32609883684677
2015-10-28 16:45:40.657329,507,535.68313934579442
2015-10-28 16:45:40.673100,509,535.07884178345057
2015-10-28 16:45:40.673190,512,534.47454422110673
2015-10-28 16:45:40.673253,515,533.87024665876288
2015-10-28 16:45:40.689022,516,533.26594909641904
2015-10-28 16:45:40.689111,517,532.65776924839861
2015-10-28 16:45:40.689175,520,532.0495894003783
2015-10-28 16:45:40.705067,523,531.44140955235787
2015-10-28 16:45:40.705253,525,530.83322970433755
2015-10-28 16:45:40.705341,526,530.22504985631713
2015-10-28 16:45:40.721145,528,529.61687000829681
2015-10-28 16:45:40.721236,528,529.00869016027639
2015-10-28 16:45:40.721300,529,528.40051031225607
2015-10-28 16:45:40.737047,530,527.79233046423565
2015-10-28 16:45:40.737148,531,527.18415061621533
2015-10-28 16:45:40.737213,534,526.57597076819491
2015-10-28 16:45:40.753140,534,525.96779092017459
2015-10-28 16:45:40.753229,535,525.35961107215417
2015-10-28 16:45:40.753292,538,524.75143122413385
2015-10-28 16:45:40.769219,541,524.14325137611343
2015-10-28 16:45:40.769342,542,523.53507152809311
2015-10-28 16:45:40.769406,543,522.92689168007269
2015-10-28 16:45:40.785194,546,522.31871183205226
2015-10-28 16:45:40.785298,548,521.71053198403195
2015-10-28 16:45:40.785363,551,521.10235213601152
2015-10-28 16:45:40.801091,554,520.49417228799132
2015-10-28 16:45:40.801181,560,519.88599243997089
2015-10-28 16:45:40.801246,564,519.27781259195046
2015-10-28 16:45:40.817063,570,518.66963274393015
2015-10-28 16:45:40.817155,577,518.06145289590972
2015-10-28 16:45:40.817220,583,517.4532730478893
2015-10-28 16:45:40.833252,589,516.84509319986898
2015-10-28 16:45:40.833475,595,516.23691335184867
2015-10-28 16:45:40.833556,603,515.62873350382824
2015-10-28 16:45:40.849161,609,515.02055365580782
2015-10-28 16:45:40.849287,611,514.41237380778739
2015-10-28 16:45:40.849352,613,513.80419395976696
2015-10-28 16:45:40.865134,614,513.19601411174654
2015-10-28 16:45:40.865295,613,512.58783426372622
2015-10-28 16:45:40.865361,608,511.97965441570574
2015-10-28 16:45:40.881026,601,511.37147456768531
2015-10-28 16:45:40.881132,592,510.76329471966494
2015-10-28 16:45:40.881197,580,510.15511487164451
2015-10-28 16:45:40.897169,562,509.54693502362414
2015-10-28 16:45:40.897277,544,508.93875517560366
2015-10-28 16:45:40.897344,528,508.37540410119163
2015-10-28 16:45:40.897406,512,507.81205302677949
2015-10-28 16:45:40.913051,499,507.24870195236736
2015-10-28 16:45:40.913220,488,506.68535087795533
2015-10-28 16:45:40.913393,481,506.12199980354319
2015-10-28 16:45:40.928912,474,505.55864872913111
2015-10-28 16:45:40.929015,469,504.99529765471897
2015-10-28 16:45:40.929135,467,504.43194658030694
2015-10-28 16:45:40.945257,465,503.8685955058948
2015-10-28 16:45:40.945361,463,503.30524443148272
2015-10-28 16:45:40.945425,463,502.74189335707064
2015-10-28 16:45:40.960998,464,502.1785422826585
2015-10-28 16:45:40.961087,466,501.61519120824642
2015-10-28 16:45:40.961151,467,501.05184013383439
2015-10-28 16:45:40.977234,466,500.48848905942225
2015-10-28 16:45:40.977325,469,499.92513798501017
2015-10-28 16:45:40.977389,471,499.36178691059814
2015-10-28 16:45:40.993166,471,498.798435836186
2015-10-28 16:45:40.993257,472,498.23508476177392
2015-10-28 16:45:40.993322,476,497.67173368736189
2015-10-28 16:45:41.009061,478,497.10838261294975
2015-10-28 16:45:41.009151,477,496.54503153853767
2015-10-28 16:45:41.009215,478,495.98168046412565
2015-10-28 16:45:41.025179,480,495.41832938971356
2015-10-28 16:45:41.025303,481,494.85497831530142
2015-10-28 16:45:41.025368,482,494.2916272408894
2015-10-28 16:45:41.041124,483,493.72827616647726
2015-10-28 16:45:41.041216,485,493.16492509206518
2015-10-28 16:45:41.041280,484,492.60157401765315
2015-10-28 16:45:41.057037,485,492.03822294324107
2015-10-28 16:45:41.057130,486,491.47487186882893
2015-10-28 16:45:41.057195,487,490.9115207944169
2015-10-28 16:45:41.073035,487,490.34816972000482
2015-10-28 16:45:41.073159,486,489.78481864559285
2015-10-28 16:45:41.073224,486,489.22146757118077
2015-10-28 16:45:41.088893,488,488.6581164967688
2015-10-28 16:45:41.088986,489,488.09476542235683
2015-10-28 16:45:41.089051,488,487.53141434794486
2015-10-28 16:45:41.105076,486,486.96806327353278
2015-10-28 16:45:41.105238,484,486.40471219912081
2015-10-28 16:45:41.105303,481,485.84136112470878
2015-10-28 16:45:41.120996,478,485.27801005029681
2015-10-28 16:45:41.121103,478,484.69912983317869
2015-10-28 16:45:41.121168,479,484.12789637989977
2015-10-28 16:45:41.136823,479,483.58899041160174
2015-10-28 16:45:41.136931,478,483.04844359630761
2015-10-28 16:45:41.136995,479,482.51780987919
2015-10-28 16:45:41.137057,479,481.99743601201953
2015-10-28 16:45:41.153018,480,481.72612234906063
2015-10-28 16:45:41.153107,481,481.77095112266903
2015-10-28 16:45:41.153171,484,481.81577989627743
2015-10-28 16:45:41.169036,486,481.86060866988578
2015-10-28 16:45:41.169127,486,481.90543744349418
2015-10-28 16:45:41.169191,486,481.95026621710258
2015-10-28 16:45:41.184959,488,481.99509499071098
2015-10-28 16:45:41.185088,490,482.03992376431933
2015-10-28 16:45:41.185317,490,482.08475253792773
2015-10-28 16:45:41.201021,490,482.12958131153613
2015-10-28 16:45:41.201111,494,482.17441008514453
2015-10-28 16:45:41.201176,496,482.21923885875287
2015-10-28 16:45:41.216828,497,482.26406763236128
2015-10-28 16:45:41.216924,499,482.30889640596968
2015-10-28 16:45:41.216990,501,482.35372517957808
2015-10-28 16:45:41.232939,503,482.39855395318642
2015-10-28 16:45:41.233030,503,482.44338272679482
2015-10-28 16:45:41.233096,505,482.48821150040322
2015-10-28 16:45:41.248968,507,482.53304027401151
2015-10-28 16:45:41.249060,509,482.57786904761991
2015-10-28 16:45:41.249125,515,482.62269782122831
2015-10-28 16:45:41.264929,518,482.66752659483672
2015-10-28 16:45:41.265019,517,482.712355368445
2015-10-28 16:45:41.265083,518,482.7571841420534
2015-10-28 16:45:41.280798,525,482.80201291566181
2015-10-28 16:45:41.280890,526,482.84684168927015
2015-10-28 16:45:41.280954,520,482.89167046287849
2015-10-28 16:45:41.296921,521,482.9364992364869
2015-10-28 16:45:41.297013,524,482.98132801009524
2015-10-28 16:45:41.297078,523,483.02615678370364
2015-10-28 16:45:41.312782,518,483.07098555731199
2015-10-28 16:45:41.312948,513,483.11581433092033
2015-10-28 16:45:41.313071,511,483.16064310452873
2015-10-28 16:45:41.328725,512,483.20547187813713
2015-10-28 16:45:41.328822,511,483.25030065174542
2015-10-28 16:45:41.328895,509,483.29512942535382
2015-10-28 16:45:41.344694,508,483.33995819896222
2015-10-28 16:45:41.344789,509,483.38478697257062
2015-10-28 16:45:41.344856,510,483.42961574617902
2015-10-28 16:45:41.361029,510,483.47444451978737
2015-10-28 16:45:41.361137,509,483.51927329339577
2015-10-28 16:45:41.361238,510,483.56410206700417
2015-10-28 16:45:41.376671,511,483.60893084061246
2015-10-28 16:45:41.376776,505,483.65375961422086
2015-10-28 16:45:41.376846,489,483.69858838782926
2015-10-28 16:45:41.376918,448,483.74341716143766
2015-10-28 16:45:41.392725,436,483.78824593504595
2015-10-28 16:45:41.392779,442,483.83307470865435
2015-10-28 16:45:41.392815,436,483.87790348226275
2015-10-28 16:45:41.408758,434,483.9227322558711
2015-10-28 16:45:41.408812,399,483.9675610294795
2015-10-28 16:45:41.408848,347,483.93169801059275
2015-10-28 16:45:41.425228,393,483.85100621809772
2015-10-28 16:45:41.425332,473,483.77031442560263
2015-10-28 16:45:41.425416,522,483.6896226331076
2015-10-28 16:45:41.440718,538,483.60893084061257
2015-10-28 16:45:41.440797,540,483.52823904811748
2015-10-28 16:45:41.440853,541,483.44754725562245
2015-10-28 16:45:41.456694,542,483.36685546312737
2015-10-28 16:45:41.456754,545,483.28616367063233
2015-10-28 16:45:41.456791,547,483.2054718781373
2015-10-28 16:45:41.472803,548,483.12478008564221
2015-10-28 16:45:41.473046,549,483.04408829314718
2015-10-28 16:45:41.473115,552,482.9633965006521
2015-10-28 16:45:41.488727,555,482.88270470815706
2015-10-28 16:45:41.488823,556,482.80201291566203
2015-10-28 16:45:41.488957,558,482.72132112316694
2015-10-28 16:45:41.504671,561,482.64062933067191
2015-10-28 16:45:41.504734,562,482.55993753817683
2015-10-28 16:45:41.504780,563,482.47924574568179
2015-10-28 16:45:41.520719,563,482.39855395318676
2015-10-28 16:45:41.520829,566,482.31786216069167
2015-10-28 16:45:41.520879,568,482.23717036819664
2015-10-28 16:45:41.536671,569,482.15647857570156
2015-10-28 16:45:41.536772,570,482.07578678320652
2015-10-28 16:45:41.536846,572,481.99509499071149
2015-10-28 16:45:41.552979,574,481.91440319821641
2015-10-28 16:45:41.553162,574,481.83371140572137
2015-10-28 16:45:41.553394,576,481.75301961322629
2015-10-28 16:45:41.568655,581,481.67232782073125
2015-10-28 16:45:41.568714,583,481.59163602823622
2015-10-28 16:45:41.568751,585,481.51094423574114
2015-10-28 16:45:41.584697,587,481.4302524432461
2015-10-28 16:45:41.584894,592,481.34956065075102
2015-10-28 16:45:41.585032,597,481.26886885825593
2015-10-28 16:45:41.600593,602,481.18817706576084
2015-10-28 16:45:41.600668,608,481.10748527326575
2015-10-28 16:45:41.600708,615,481.02679348077066
2015-10-28 16:45:41.616581,622,480.94610168827558
2015-10-28 16:45:41.616648,626,480.86540989578049
2015-10-28 16:45:41.616685,633,480.78471810328534
2015-10-28 16:45:41.632600,640,480.70402631079031
2015-10-28 16:45:41.632707,642,480.62333451829517
2015-10-28 16:45:41.632771,643,480.54264272580014
2015-10-28 16:45:41.632832,645,480.46195093330499
2015-10-28 16:45:41.648696,644,480.38125914080996
2015-10-28 16:45:41.648787,639,480.30056734831481
2015-10-28 16:45:41.648859,633,480.21987555581978
2015-10-28 16:45:41.664663,627,480.13918376332464
2015-10-28 16:45:41.664748,615,480.05849197082961
2015-10-28 16:45:41.664795,598,480.04555101857443
2015-10-28 16:45:41.680592,580,480.48846499592798
2015-10-28 16:45:41.680646,563,480.98318590284481
2015-10-28 16:45:41.680683,547,481.47790680976175
2015-10-28 16:45:41.696655,531,481.97262771667857
2015-10-28 16:45:41.696718,518,482.46734862359551
2015-10-28 16:45:41.696762,509,482.96206953051234
2015-10-28 16:45:41.712643,502,483.45679043742928
2015-10-28 16:45:41.712773,496,483.9515113443461
2015-10-28 16:45:41.712828,493,484.44623225126304
2015-10-28 16:45:41.728606,492,484.94095315817987
2015-10-28 16:45:41.728695,491,485.4356740650968
2015-10-28 16:45:41.728764,490,485.93039497201363
2015-10-28 16:45:41.744683,490,486.42511587893057
2015-10-28 16:45:41.744879,490,486.91983678584739
2015-10-28 16:45:41.744949,492,487.41455769276433
2015-10-28 16:45:41.760637,494,487.90927859968122
2015-10-28 16:45:41.760694,495,488.4039995065981
2015-10-28 16:45:41.760732,498,488.89872041351498
2015-10-28 16:45:41.776586,499,489.39344132043192
2015-10-28 16:45:41.776650,499,489.88816222734886
2015-10-28 16:45:41.776695,502,490.38288313426568
2015-10-28 16:45:41.792835,506,490.87760404118262
2015-10-28 16:45:41.792928,507,491.3723249480995
2015-10-28 16:45:41.792992,507,491.86704585501644
2015-10-28 16:45:41.808625,508,492.36176676193327
2015-10-28 16:45:41.808717,509,492.85648766885021
2015-10-28 16:45:41.808781,510,493.35120857576709
2015-10-28 16:45:41.824749,512,493.84592948268403
2015-10-28 16:45:41.824842,512,494.34065038960085
2015-10-28 16:45:41.824906,512,494.83537129651779
2015-10-28 16:45:41.840586,511,495.33009220343462
2015-10-28 16:45:41.840765,512,495.82481311035156
2015-10-28 16:45:41.840891,514,496.3195340172685
2015-10-28 16:45:41.856574,515,496.81425492418549
2015-10-28 16:45:41.856651,515,497.30897583110237
2015-10-28 16:45:41.856696,516,497.80369673801931
2015-10-28 16:45:41.872615,516,498.29841764493625
2015-10-28 16:45:41.872967,516,498.79313855185319
2015-10-28 16:45:41.873098,514,499.28785945877013
2015-10-28 16:45:41.873216,515,499.78258036568707
2015-10-28 16:45:41.888644,516,500.27730127260395
2015-10-28 16:45:41.888731,514,500.77202217952095
2015-10-28 16:45:41.888795,514,501.26674308643783
2015-10-28 16:45:41.904628,516,501.76146399335482
2015-10-28 16:45:41.904745,516,502.25618490027171
2015-10-28 16:45:41.904812,515,502.75090580718864
2015-10-28 16:45:41.920632,516,503.24562671410564
2015-10-28 16:45:41.920745,517,503.74034762102252
2015-10-28 16:45:41.920832,518,504.23506852793946
2015-10-28 16:45:41.936510,518,504.72978943485646
2015-10-28 16:45:41.936568,517,505.30520213426843
2015-10-28 16:45:41.936605,519,505.88061483368045
2015-10-28 16:45:41.952530,519,506.45602753309242
2015-10-28 16:45:41.952585,518,507.03144023250439
2015-10-28 16:45:41.952622,519,507.60685293191648
2015-10-28 16:45:41.968685,522,508.18226563132845
2015-10-28 16:45:41.968775,522,508.75767833074048
2015-10-28 16:45:41.968839,521,509.33309103015245
2015-10-28 16:45:41.984641,521,509.90850372956447
2015-10-28 16:45:41.984730,521,510.4839164289765
2015-10-28 16:45:41.984799,521,511.05932912838853
2015-10-28 16:45:42.000633,521,511.6347418278005
2015-10-28 16:45:42.000765,522,512.21015452721247
2015-10-28 16:45:42.000863,524,512.78556722662449
2015-10-28 16:45:42.016742,525,513.36097992603641
2015-10-28 16:45:42.016855,525,513.93639262544855
2015-10-28 16:45:42.016944,526,514.51180532486046
2015-10-28 16:45:42.032668,527,515.08721802427249
2015-10-28 16:45:42.032777,527,515.66263072368452
2015-10-28 16:45:42.032863,528,516.23804342309654
2015-10-28 16:45:42.048623,528,516.81345612250857
2015-10-28 16:45:42.048678,531,517.38886882192048
2015-10-28 16:45:42.048716,532,517.96428152133251
2015-10-28 16:45:42.064583,538,518.53969422074454
2015-10-28 16:45:42.064781,541,519.11510692015656
2015-10-28 16:45:42.064872,541,519.69051961956859
2015-10-28 16:45:42.080589,542,520.26593231898062
2015-10-28 16:45:42.080696,549,520.84134501839253
2015-10-28 16:45:42.080761,548,521.41675771780456
2015-10-28 16:45:42.096740,543,521.99217041721658
2015-10-28 16:45:42.096846,544,522.5675831166285
2015-10-28 16:45:42.096912,546,523.14299581604052
2015-10-28 16:45:42.112575,543,523.71840851545255
2015-10-28 16:45:42.112692,538,524.29382121486458
2015-10-28 16:45:42.112757,535,524.86923391427649
2015-10-28 16:45:42.112819,534,525.44464661368852
2015-10-28 16:45:42.128919,533,526.02005931310055
2015-10-28 16:45:42.129010,531,526.59547201251246
2015-10-28 16:45:42.129074,530,527.17088471192449
2015-10-28 16:45:42.144876,530,527.7462974113364
2015-10-28 16:45:42.144997,531,528.32171011074843
2015-10-28 16:45:42.145062,531,528.89712281016045
2015-10-28 16:45:42.160880,531,529.47253550957248
2015-10-28 16:45:42.160970,533,530.04794820898439
2015-10-28 16:45:42.161035,534,530.62336090839642
2015-10-28 16:45:42.176897,534,531.19877360780845
2015-10-28 16:45:42.177012,531,531.77418630722036
2015-10-28 16:45:42.177077,518,532.34959900663239
2015-10-28 16:45:42.192794,495,532.9250117060443
2015-10-28 16:45:42.192884,491,533.43267356521631
2015-10-28 16:45:42.192948,489,533.48448049477986
2015-10-28 16:45:42.208900,483,533.48448049477986
2015-10-28 16:45:42.209011,470,533.48448049477986
2015-10-28 16:45:42.209076,419,533.50389192316243
2015-10-28 16:45:42.224780,377,533.40189401537486
2015-10-28 16:45:42.224882,429,533.29989610758719
2015-10-28 16:45:42.224956,497,533.19789819979951
2015-10-28 16:45:42.240814,533,533.09590029201183
2015-10-28 16:45:42.240904,550,532.99390238422416
2015-10-28 16:45:42.240969,556,532.89190447643648
2015-10-28 16:45:42.257030,556,532.7899065686488
2015-10-28 16:45:42.257139,558,532.68790866086113
2015-10-28 16:45:42.257205,561,532.58591075307345
2015-10-28 16:45:42.272619,563,532.48391284528589
2015-10-28 16:45:42.272831,563,532.38191493749821
2015-10-28 16:45:42.272957,564,532.27991702971053
2015-10-28 16:45:42.288576,566,532.17791912192286
2015-10-28 16:45:42.288692,567,532.07592121413518
2015-10-28 16:45:42.288780,566,531.9739233063475
2015-10-28 16:45:42.304727,567,531.87192539855982
2015-10-28 16:45:42.304854,569,531.76992749077215
2015-10-28 16:45:42.304919,571,531.66792958298458
2015-10-28 16:45:42.320454,572,531.56593167519691
2015-10-28 16:45:42.320531,573,531.46393376740923
2015-10-28 16:45:42.320621,574,531.36193585962155
2015-10-28 16:45:42.336806,575,531.25993795183388
2015-10-28 16:45:42.336973,576,531.1579400440462
2015-10-28 16:45:42.337040,578,531.05594213625852
2015-10-28 16:45:42.352786,580,530.95394422847085
2015-10-28 16:45:42.352942,581,530.85194632068328
2015-10-28 16:45:42.353009,581,530.74994841289561
2015-10-28 16:45:42.353071,582,530.64795050510793
2015-10-28 16:45:42.368551,583,530.54595259732025
2015-10-28 16:45:42.368731,586,530.44395468953257
2015-10-28 16:45:42.368814,588,530.3419567817449
2015-10-28 16:45:42.384801,591,530.23995887395722
2015-10-28 16:45:42.384889,596,530.13796096616954
2015-10-28 16:45:42.384953,600,530.03596305838187
2015-10-28 16:45:42.400590,605,529.9339651505943
2015-10-28 16:45:42.400688,612,529.83196724280663
2015-10-28 16:45:42.400754,618,529.72996933501895
2015-10-28 16:45:42.416614,623,529.62797142723127
2015-10-28 16:45:42.416715,629,529.52597351944348
2015-10-28 16:45:42.416786,636,529.42397561165592
2015-10-28 16:45:42.432483,639,529.32197770386813
2015-10-28 16:45:42.432577,642,529.21997979608045
2015-10-28 16:45:42.432658,644,529.11798188829277
2015-10-28 16:45:42.448471,645,529.0159839805051
2015-10-28 16:45:42.448563,641,528.91398607271731
2015-10-28 16:45:42.448635,638,528.7861062604195
2015-10-28 16:45:42.464467,634,528.98229438409885
2015-10-28 16:45:42.464569,626,529.36533322930813
2015-10-28 16:45:42.464649,611,529.74837207451753
2015-10-28 16:45:42.480449,597,530.13141091972682
2015-10-28 16:45:42.480545,582,530.51444976493622
2015-10-28 16:45:42.480616,563,530.8974886101455
2015-10-28 16:45:42.496513,547,531.2805274553549
2015-10-28 16:45:42.496600,533,531.66356630056418
2015-10-28 16:45:42.496664,523,532.04660514577358
2015-10-28 16:45:42.513418,515,532.42964399098287
2015-10-28 16:45:42.513516,509,532.81268283619215
2015-10-28 16:45:42.513587,505,533.19572168140155
2015-10-28 16:45:42.528431,503,533.57876052661084
2015-10-28 16:45:42.528520,501,533.96179937182023
2015-10-28 16:45:42.528588,501,534.34483821702952
2015-10-28 16:45:42.544628,500,534.72787706223892
2015-10-28 16:45:42.544718,501,535.1109159074482
2015-10-28 16:45:42.544782,501,535.4939547526576
2015-10-28 16:45:42.560381,503,535.87699359786689
2015-10-28 16:45:42.560490,507,536.26003244307628
2015-10-28 16:45:42.560559,510,536.64307128828557
2015-10-28 16:45:42.576435,512,537.02611013349497
2015-10-28 16:45:42.576519,512,537.40914897870437
2015-10-28 16:45:42.576557,515,537.79218782391365
2015-10-28 16:45:42.592379,519,538.17522666912305
2015-10-28 16:45:42.592482,519,538.55826551433233
2015-10-28 16:45:42.592556,521,538.94130435954173
2015-10-28 16:45:42.643491,524,539.32434320475102
2015-10-28 16:45:42.643598,526,539.70738204996042
2015-10-28 16:45:42.643657,529,540.0904208951697
2015-10-28 16:45:42.643715,531,540.4734597403791
2015-10-28 16:45:42.643779,532,540.85649858558838
2015-10-28 16:45:42.643850,532,541.23953743079778
2015-10-28 16:45:42.643909,531,541.62257627600707
2015-10-28 16:45:42.643968,530,542.00561512121647
2015-10-28 16:45:42.644024,532,542.38865396642575
2015-10-28 16:45:42.644168,533,542.77169281163503
2015-10-28 16:45:42.656382,533,543.15473165684443
2015-10-28 16:45:42.656476,536,543.53777050205372
2015-10-28 16:45:42.656541,538,543.92080934726312
2015-10-28 16:45:42.672465,535,544.30384819247251
2015-10-28 16:45:42.672555,533,544.68688703768191
2015-10-28 16:45:42.672623,533,545.06992588289131
2015-10-28 16:45:42.688443,534,545.45296472810071
2015-10-28 16:45:42.688533,534,545.83600357331011
2015-10-28 16:45:42.688602,533,546.21904241851951
2015-10-28 16:45:42.704379,533,546.60208126372891
2015-10-28 16:45:42.704458,535,546.9851201089383
2015-10-28 16:45:42.704516,535,547.36815895414759
2015-10-28 16:45:42.720330,535,547.7511977993571
2015-10-28 16:45:42.720426,536,548.13423664456639
2015-10-28 16:45:42.720506,536,548.51727548977578
2015-10-28 16:45:42.736297,536,548.90031433498518
2015-10-28 16:45:42.736356,536,549.26394175181201
2015-10-28 16:45:42.736392,536,549.74897850480897
2015-10-28 16:45:42.752336,535,550.23401525780616
2015-10-28 16:45:42.752422,533,550.71905201080313
2015-10-28 16:45:42.752491,533,551.20408876380031
2015-10-28 16:45:42.768327,536,551.68912551679728
2015-10-28 16:45:42.768411,536,552.17416226979446
2015-10-28 16:45:42.768478,536,552.65919902279143
2015-10-28 16:45:42.785539,537,553.1442357757885
2015-10-28 16:45:42.785635,538,553.62927252878558
2015-10-28 16:45:42.785703,539,554.11430928178265
2015-10-28 16:45:42.800333,537,554.59934603477973
2015-10-28 16:45:42.800431,537,555.0843827877768
2015-10-28 16:45:42.800500,537,555.56941954077388
2015-10-28 16:45:42.816278,536,556.05445629377095
2015-10-28 16:45:42.816377,534,556.53949304676803
2015-10-28 16:45:42.816451,534,557.02452979976511
2015-10-28 16:45:42.832280,537,557.50956655276218
2015-10-28 16:45:42.832382,540,557.99460330575926
2015-10-28 16:45:42.832451,544,558.47964005875633
2015-10-28 16:45:42.848290,543,558.96467681175329
2015-10-28 16:45:42.848404,542,559.44971356475048
2015-10-28 16:45:42.848532,545,559.93475031774744
2015-10-28 16:45:42.848625,552,560.41978707074463
2015-10-28 16:45:42.864334,550,560.90482382374159
2015-10-28 16:45:42.864496,547,561.38986057673878
2015-10-28 16:45:42.864605,548,561.87489732973575
2015-10-28 16:45:42.881282,549,562.35993408273293
2015-10-28 16:45:42.881371,546,562.8449708357299
2015-10-28 16:45:42.881441,542,563.33000758872709
2015-10-28 16:45:42.896377,539,563.81504434172405
2015-10-28 16:45:42.896473,537,564.30008109472124
2015-10-28 16:45:42.896548,536,564.7851178477182
2015-10-28 16:45:42.912941,534,565.27015460071527
2015-10-28 16:45:42.913031,532,565.75519135371235
2015-10-28 16:45:42.913099,533,566.24022810670931
2015-10-28 16:45:42.928293,534,566.7252648597065
2015-10-28 16:45:42.928379,535,567.21030161270346
2015-10-28 16:45:42.928446,534,567.69533836570054
2015-10-28 16:45:42.944320,533,568.18037511869761
2015-10-28 16:45:42.944416,536,568.66541187169469
2015-10-28 16:45:42.944642,537,569.15044862469176
2015-10-28 16:45:42.960276,533,569.63548537768872
2015-10-28 16:45:42.960358,521,570.1205221306858
2015-10-28 16:45:42.960417,508,570.60555888368287
2015-10-28 16:45:42.976237,501,571.09059563667995
2015-10-28 16:45:42.976291,490,571.60151429418715
2015-10-28 16:45:42.976327,481,571.7883650157172
2015-10-28 16:45:42.992324,456,571.8064823488744
2015-10-28 16:45:42.992576,397,571.65309227949388
2015-10-28 16:45:42.992690,381,571.32948890280124
2015-10-28 16:45:43.008243,445,571.00588552610861
2015-10-28 16:45:43.008298,505,570.68228214941598
2015-10-28 16:45:43.008335,531,570.35867877272335
2015-10-28 16:45:43.024237,545,570.03507539603072
2015-10-28 16:45:43.024295,553,569.71147201933809
2015-10-28 16:45:43.024333,556,569.38786864264546
2015-10-28 16:45:43.040250,557,569.06426526595283
2015-10-28 16:45:43.040316,560,568.7406618892602
2015-10-28 16:45:43.040361,563,568.41705851256756
2015-10-28 16:45:43.056205,564,568.09345513587493
2015-10-28 16:45:43.056272,564,567.7698517591823
2015-10-28 16:45:43.056309,565,567.44624838248967
2015-10-28 16:45:43.072715,567,567.12264500579704
2015-10-28 16:45:43.072974,568,566.79904162910441
2015-10-28 16:45:43.073050,569,566.47543825241178
2015-10-28 16:45:43.088223,571,566.15183487571915
2015-10-28 16:45:43.088303,572,565.82823149902651
2015-10-28 16:45:43.088350,572,565.50462812233388
2015-10-28 16:45:43.088395,571,565.18102474564125
2015-10-28 16:45:43.104266,572,564.85742136894862
2015-10-28 16:45:43.104329,574,564.53381799225599
2015-10-28 16:45:43.104444,572,564.21021461556336
2015-10-28 16:45:43.120296,574,563.88661123887073
2015-10-28 16:45:43.120381,574,563.56300786217821
2015-10-28 16:45:43.120427,575,563.23940448548558
2015-10-28 16:45:43.136459,575,562.91580110879295
2015-10-28 16:45:43.136549,578,562.59219773210032
2015-10-28 16:45:43.136613,580,562.26859435540769
2015-10-28 16:45:43.152237,582,561.94499097871505
2015-10-28 16:45:43.152298,582,561.62138760202242
2015-10-28 16:45:43.152342,586,561.29778422532979
2015-10-28 16:45:43.168226,591,560.97418084863716
2015-10-28 16:45:43.168288,594,560.65057747194453
2015-10-28 16:45:43.168332,597,560.3269740952519
2015-10-28 16:45:43.184227,603,560.00337071855927
2015-10-28 16:45:43.184319,608,559.67976734186664
2015-10-28 16:45:43.184390,613,559.35616396517401
2015-10-28 16:45:43.200254,618,559.03256058848137
2015-10-28 16:45:43.200309,626,558.70895721178874
2015-10-28 16:45:43.200345,630,558.38535383509611
2015-10-28 16:45:43.216309,632,558.06175045840348
2015-10-28 16:45:43.216458,632,557.73814708171085
2015-10-28 16:45:43.216529,632,557.41454370501822
2015-10-28 16:45:43.232352,630,557.09094032832547
2015-10-28 16:45:43.232446,625,556.76733695163284
2015-10-28 16:45:43.232510,620,556.4437335749401
2015-10-28 16:45:43.248241,611,556.12013019824758
2015-10-28 16:45:43.248386,596,555.79652682155483
2015-10-28 16:45:43.248451,578,555.4729234448622
2015-10-28 16:45:43.264451,560,555.13637911591445
2015-10-28 16:45:43.264576,544,555.0040164262557
2015-10-28 16:45:43.264641,528,554.89328170800309
2015-10-28 16:45:43.280458,514,554.78254698975047
2015-10-28 16:45:43.280590,503,554.67181227149786
2015-10-28 16:45:43.280849,496,554.56107755324524
2015-10-28 16:45:43.296116,489,554.45034283499263
2015-10-28 16:45:43.296218,482,554.33960811674012
2015-10-28 16:45:43.296267,479,554.22887339848739
2015-10-28 16:45:43.312126,477,554.11813868023489
2015-10-28 16:45:43.312213,476,554.00740396198228
2015-10-28 16:45:43.312252,473,553.89666924372966
2015-10-28 16:45:43.328123,472,553.78593452547705
2015-10-28 16:45:43.328315,472,553.67519980722443
2015-10-28 16:45:43.328395,471,553.56446508897182
2015-10-28 16:45:43.328447,471,553.4537303707192
2015-10-28 16:45:43.344189,472,553.34299565246658
2015-10-28 16:45:43.344252,474,553.23226093421397
2015-10-28 16:45:43.344296,473,553.12152621596135
2015-10-28 16:45:43.360155,473,553.01079149770885
2015-10-28 16:45:43.360208,475,552.90005677945612
2015-10-28 16:45:43.360244,475,552.78932206120351
2015-10-28 16:45:43.376166,475,552.678587342951
2015-10-28 16:45:43.376251,476,552.56785262469828
2015-10-28 16:45:43.376320,477,552.45711790644577
2015-10-28 16:45:43.392165,477,552.34638318819304
2015-10-28 16:45:43.392250,477,552.23564846994054
2015-10-28 16:45:43.392314,476,552.12491375168793
2015-10-28 16:45:43.408135,476,552.01417903343531
2015-10-28 16:45:43.408227,476,551.9034443151827
2015-10-28 16:45:43.408298,476,551.79270959693008
2015-10-28 16:45:43.424307,478,551.68197487867747
2015-10-28 16:45:43.424434,478,551.57124016042485
2015-10-28 16:45:43.424596,476,551.46050544217223
2015-10-28 16:45:43.440120,473,551.34977072391962
2015-10-28 16:45:43.440214,472,551.23903600566712
2015-10-28 16:45:43.440286,472,551.1283012874145
2015-10-28 16:45:43.456506,470,551.01756656916189
2015-10-28 16:45:43.457387,468,550.90683185090927
2015-10-28 16:45:43.457599,467,550.79609713265666
2015-10-28 16:45:43.472092,466,550.68536241440404
2015-10-28 16:45:43.472239,464,550.57462769615142
2015-10-28 16:45:43.472289,462,550.46389297789881
2015-10-28 16:45:43.488139,462,550.35315825964619
2015-10-28 16:45:43.488193,462,550.24242354139358
2015-10-28 16:45:43.488229,461,550.13168882314085
2015-10-28 16:45:43.504180,461,550.02095410488823
2015-10-28 16:45:43.504321,462,549.91021938663562
2015-10-28 16:45:43.504440,462,549.78136733522581
2015-10-28 16:45:43.520328,462,549.82402268635371
2015-10-28 16:45:43.520421,462,550.03689134479373
2015-10-28 16:45:43.520486,462,550.24976000323375
2015-10-28 16:45:43.536253,462,550.46262866167376
2015-10-28 16:45:43.536344,461,550.67549732011378
2015-10-28 16:45:43.536409,460,550.88836597855379
2015-10-28 16:45:43.552244,461,551.10123463699381
2015-10-28 16:45:43.552362,459,551.31410329543382
2015-10-28 16:45:43.552446,458,551.52697195387395
2015-10-28 16:45:43.568160,459,551.73984061231386
2015-10-28 16:45:43.568329,460,551.95270927075399
2015-10-28 16:45:43.568450,459,552.16557792919389
2015-10-28 16:45:43.584011,458,552.37844658763402
2015-10-28 16:45:43.584115,459,552.59131524607392
2015-10-28 16:45:43.584178,461,552.80418390451405
2015-10-28 16:45:43.584242,461,553.01705256295395
2015-10-28 16:45:43.600108,461,553.22992122139408
2015-10-28 16:45:43.600170,461,553.44278987983409
2015-10-28 16:45:43.600214,461,553.65565853827411
2015-10-28 16:45:43.616084,460,553.86852719671413
2015-10-28 16:45:43.616143,462,554.08139585515414
2015-10-28 16:45:43.616185,468,554.29426451359416
2015-10-28 16:45:43.632355,471,554.50713317203417
2015-10-28 16:45:43.632447,470,554.72000183047419
2015-10-28 16:45:43.632510,471,554.9328704889142
2015-10-28 16:45:43.648137,477,555.14573914735433
2015-10-28 16:45:43.648226,479,555.35860780579424
2015-10-28 16:45:43.648289,472,555.57147646423437
2015-10-28 16:45:43.664164,470,555.78434512267427
2015-10-28 16:45:43.664237,475,555.9972137811144
2015-10-28 16:45:43.664289,477,556.2100824395543
2015-10-28 16:45:43.680102,471,556.42295109799443
2015-10-28 16:45:43.680193,467,556.63581975643433
2015-10-28 16:45:43.680257,464,556.84868841487446
2015-10-28 16:45:43.696281,463,557.06155707331448
2015-10-28 16:45:43.696420,463,557.27442573175449
2015-10-28 16:45:43.696488,462,557.48729439019451
2015-10-28 16:45:43.712394,462,557.70016304863452
2015-10-28 16:45:43.712829,463,557.91303170707454
2015-10-28 16:45:43.712949,463,558.12590036551455
2015-10-28 16:45:43.728204,463,558.33876902395457
2015-10-28 16:45:43.728361,463,558.55163768239458
2015-10-28 16:45:43.728486,463,558.76450634083471
2015-10-28 16:45:43.743993,465,558.97737499927473
2015-10-28 16:45:43.744148,465,559.19024365771475
2015-10-28 16:45:43.744328,452,559.40828869705672
2015-10-28 16:45:43.760350,408,559.55245917180184
2015-10-28 16:45:43.760480,380,559.58118310667669
2015-10-28 16:45:43.760545,384,559.59500338618693
2015-10-28 16:45:43.776076,380,559.61055742454994
2015-10-28 16:45:43.776190,381,559.62999374858953
2015-10-28 16:45:43.776277,365,559.58768514923213
2015-10-28 16:45:43.792175,315,558.97553010367824
2015-10-28 16:45:43.792338,336,558.06553577842806
2015-10-28 16:45:43.792404,416,557.15554145317788
2015-10-28 16:45:43.808119,476,556.24554712792769
2015-10-28 16:45:43.808226,498,555.33555280267763
2015-10-28 16:45:43.808291,500,554.42555847742744
2015-10-28 16:45:43.824207,498,553.51556415217726
2015-10-28 16:45:43.824315,500,552.60556982692708
2015-10-28 16:45:43.824380,504,551.69557550167701
2015-10-28 16:45:43.824442,507,550.78558117642683
2015-10-28 16:45:43.840291,508,549.87558685117665
2015-10-28 16:45:43.840384,510,548.96559252592647
2015-10-28 16:45:43.840449,512,548.0555982006764
2015-10-28 16:45:43.856233,514,547.14560387542622
2015-10-28 16:45:43.856324,515,546.23560955017604
2015-10-28 16:45:43.856389,517,545.32561522492585
2015-10-28 16:45:43.872205,519,544.41562089967579
2015-10-28 16:45:43.872294,519,543.50562657442561
2015-10-28 16:45:43.872358,520,542.59563224917542
2015-10-28 16:45:43.888186,522,541.68563792392524
2015-10-28 16:45:43.888277,524,540.77564359867506
2015-10-28 16:45:43.888341,524,539.86564927342499
2015-10-28 16:45:43.904201,525,538.95565494817481
2015-10-28 16:45:43.904290,527,538.04566062292463
2015-10-28 16:45:43.904354,529,537.13566629767445
2015-10-28 16:45:43.920317,530,536.22567197242438
2015-10-28 16:45:43.920454,531,535.3156776471742
2015-10-28 16:45:43.920569,534,534.40568332192402
2015-10-28 16:45:43.936248,536,533.49568899667383
2015-10-28 16:45:43.936338,538,532.58569467142377
2015-10-28 16:45:43.936401,540,531.67570034617358
2015-10-28 16:45:43.952104,544,530.7657060209234
2015-10-28 16:45:43.952238,547,529.85571169567322
2015-10-28 16:45:43.952348,552,528.94571737042315
2015-10-28 16:45:43.969037,558,528.03572304517297
2015-10-28 16:45:43.973674,564,527.1257287199229
2015-10-28 16:45:43.973872,569,526.21573439467284
2015-10-28 16:45:43.983991,575,525.30574006942265
2015-10-28 16:45:43.984047,581,524.39574574417259
2015-10-28 16:45:43.984083,587,523.4857514189224
2015-10-28 16:45:44.000042,591,522.57575709367222
2015-10-28 16:45:44.000142,596,521.66576276842204
2015-10-28 16:45:44.000215,600,520.75576844317197
2015-10-28 16:45:44.016073,603,519.84577411792191
2015-10-28 16:45:44.016148,601,518.93577979267172
2015-10-28 16:45:44.016197,600,518.02578546742166
2015-10-28 16:45:44.031985,597,517.11579114217159
2015-10-28 16:45:44.032062,591,516.20579681692141
2015-10-28 16:45:44.032121,579,515.29580249167134
2015-10-28 16:45:44.048244,567,514.38580816642116
2015-10-28 16:45:44.048329,551,513.47581384117109
2015-10-28 16:45:44.048368,533,512.56581951592091
2015-10-28 16:45:44.063960,514,511.65582519067084
2015-10-28 16:45:44.064073,499,510.74583086542066
2015-10-28 16:45:44.064143,487,509.83583654017059
2015-10-28 16:45:44.064209,476,508.92584221492046
2015-10-28 16:45:44.079981,468,508.01584788967034
2015-10-28 16:45:44.080093,463,507.10585356442022
2015-10-28 16:45:44.080161,460,506.19585923917015
2015-10-28 16:45:44.096117,456,505.28586491391997
2015-10-28 16:45:44.096206,454,504.3758705886699
2015-10-28 16:45:44.096270,455,503.46587626341972
2015-10-28 16:45:44.112340,456,502.55588193816965
2015-10-28 16:45:44.112430,457,501.64588761291952
2015-10-28 16:45:44.112494,458,500.7358932876694
2015-10-28 16:45:44.128293,459,499.82589896241927
2015-10-28 16:45:44.128383,460,498.91590463716909
2015-10-28 16:45:44.128447,461,498.00591031191902
2015-10-28 16:45:44.144248,465,497.09591598666884
2015-10-28 16:45:44.144336,469,496.18592166141877
2015-10-28 16:45:44.144400,471,495.27592733616865
2015-10-28 16:45:44.160030,472,494.36593301091852
2015-10-28 16:45:44.160118,474,493.4559386856684
2015-10-28 16:45:44.160183,476,492.54594436041822
2015-10-28 16:45:44.175983,477,491.63595003516809
2015-10-28 16:45:44.176074,477,490.72595570991803
2015-10-28 16:45:44.176138,479,489.81596138466784
2015-10-28 16:45:44.191935,480,488.90596705941772
2015-10-28 16:45:44.192013,481,487.99597273416754
2015-10-28 16:45:44.192049,481,487.08597840891741
2015-10-28 16:45:44.207951,482,486.17598408366729
2015-10-28 16:45:44.208066,483,485.26598975841716
2015-10-28 16:45:44.208113,482,484.35599543316698
2015-10-28 16:45:44.223919,484,483.44600110791686
2015-10-28 16:45:44.223985,486,482.53600678266668
2015-10-28 16:45:44.224027,488,481.62601245741661
2015-10-28 16:45:44.239936,486,480.71601813216648
2015-10-28 16:45:44.240036,485,479.8060238069163
2015-10-28 16:45:44.240142,485,478.89602948166612
2015-10-28 16:45:44.255943,486,477.98603515641599
2015-10-28 16:45:44.256012,486,477.07604083116581
2015-10-28 16:45:44.256059,487,476.16604650591569
2015-10-28 16:45:44.271880,488,475.25605218066562
2015-10-28 16:45:44.271986,489,474.34088147451342
2015-10-28 16:45:44.272052,490,473.49958533295813
2015-10-28 16:45:44.287934,490,472.77373573127306
2015-10-28 16:45:44.288053,491,472.06278978495288
2015-10-28 16:45:44.288119,492,471.35011007977965
2015-10-28 16:45:44.303896,492,470.6335480889299
2015-10-28 16:45:44.303998,493,469.99167197373231
2015-10-28 16:45:44.304117,494,469.71546066544215
2015-10-28 16:45:44.304193,494,469.71546066544215
2015-10-28 16:45:44.319939,492,469.71546066544215
2015-10-28 16:45:44.320078,494,469.71546066544215
2015-10-28 16:45:44.320175,495,469.71546066544215
2015-10-28 16:45:44.337153,495,469.71546066544215
2015-10-28 16:45:44.337238,495,469.71546066544215
2015-10-28 16:45:44.337301,498,469.71546066544215
2015-10-28 16:45:44.351933,499,469.71546066544215
2015-10-28 16:45:44.352072,499,469.71546066544215
2015-10-28 16:45:44.352118,499,469.71546066544215
2015-10-28 16:45:44.367885,500,469.71546066544215
2015-10-28 16:45:44.367981,500,469.71546066544215
2015-10-28 16:45:44.368055,500,469.71546066544215
2015-10-28 16:45:44.390852,501,469.71546066544215
2015-10-28 16:45:44.390978,503,469.71546066544215
2015-10-28 16:45:44.391100,504,469.71546066544215
2015-10-28 16:45:44.399996,504,469.71546066544215
2015-10-28 16:45:44.400080,506,469.71546066544215
2015-10-28 16:45:44.400142,507,469.71546066544215
2015-10-28 16:45:44.415887,507,469.71546066544215
2015-10-28 16:45:44.415980,508,469.71546066544215
2015-10-28 16:45:44.416048,511,469.71546066544215
2015-10-28 16:45:44.431839,514,469.71546066544215
2015-10-28 16:45:44.431893,517,469.71546066544215
2015-10-28 16:45:44.431929,522,469.71546066544215
2015-10-28 16:45:44.448453,524,469.71546066544215
2015-10-28 16:45:44.448538,523,469.71546066544215
2015-10-28 16:45:44.448600,524,469.71546066544215
2015-10-28 16:45:44.463805,529,469.71546066544215
2015-10-28 16:45:44.463860,529,469.71546066544215
2015-10-28 16:45:44.463897,527,469.71546066544215
2015-10-28 16:45:44.479782,529,469.71546066544215
2015-10-28 16:45:44.479837,532,469.71546066544215
2015-10-28 16:45:44.479874,529,469.71546066544215
2015-10-28 16:45:44.495799,523,469.71546066544215
2015-10-28 16:45:44.495856,519,469.71546066544215
2015-10-28 16:45:44.495893,520,469.71546066544215
2015-10-28 16:45:44.511819,521,469.71546066544215
2015-10-28 16:45:44.511876,520,469.71546066544215
2015-10-28 16:45:44.511913,519,469.71546066544215
2015-10-28 16:45:44.527761,520,469.71546066544215
2015-10-28 16:45:44.527870,522,469.71546066544215
2015-10-28 16:45:44.527933,521,469.71546066544215
2015-10-28 16:45:44.543766,520,469.71546066544215
2015-10-28 16:45:44.543866,520,469.71546066544215
2015-10-28 16:45:44.543932,521,469.71546066544215
2015-10-28 16:45:44.562470,524,469.71546066544215
2015-10-28 16:45:44.562590,520,469.71546066544215
2015-10-28 16:45:44.562667,504,469.71546066544215
2015-10-28 16:45:44.562740,467,469.71546066544215
2015-10-28 16:45:44.575907,459,469.71546066544215
2015-10-28 16:45:44.576024,462,469.71546066544215
2015-10-28 16:45:44.576072,457,469.71546066544215
2015-10-28 16:45:44.591899,452,469.71546066544215
2015-10-28 16:45:44.591990,411,469.71546066544215
2015-10-28 16:45:44.592108,365,469.73487209382478
2015-10-28 16:45:44.608655,416,469.75428352220734
2015-10-28 16:45:44.608757,492,469.77369495058997
2015-10-28 16:45:44.608911,536,469.79310637897254
2015-10-28 16:45:44.623798,552,469.81251780735511
2015-10-28 16:45:44.623902,556,469.83192923573773
2015-10-28 16:45:44.624014,557,469.8513406641203
2015-10-28 16:45:44.639783,558,469.87075209250293
2015-10-28 16:45:44.639869,561,469.89016352088549
2015-10-28 16:45:44.639934,564,469.90957494926806
2015-10-28 16:45:44.655873,565,469.92898637765069
2015-10-28 16:45:44.655946,568,469.94839780603326
2015-10-28 16:45:44.655986,569,469.96780923441588
2015-10-28 16:45:44.671800,570,469.98722066279845
2015-10-28 16:45:44.671855,570,470.00663209118102
2015-10-28 16:45:44.671901,572,470.02604351956364
2015-10-28 16:45:44.687979,575,470.04545494794621
2015-10-28 16:45:44.688071,575,470.06486637632884
2015-10-28 16:45:44.688154,575,470.08427780471141
2015-10-28 16:45:44.704363,575,470.10368923309397
2015-10-28 16:45:44.704455,579,470.1231006614766
2015-10-28 16:45:44.704583,580,470.14251208985917
2015-10-28 16:45:44.719720,580,470.16192351824179
2015-10-28 16:45:44.719777,582,470.18133494662436
2015-10-28 16:45:44.719814,586,470.20074637500693
2015-10-28 16:45:44.735745,587,470.22015780338955
2015-10-28 16:45:44.735835,587,470.23956923177212
2015-10-28 16:45:44.735904,589,470.25898066015475
2015-10-28 16:45:44.751744,592,470.27839208853732
2015-10-28 16:45:44.751799,596,470.29780351692
2015-10-28 16:45:44.751836,598,470.31721494530257
2015-10-28 16:45:44.767681,602,470.33662637368525
2015-10-28 16:45:44.767748,605,470.35603780206782
2015-10-28 16:45:44.767785,609,470.3754492304505
2015-10-28 16:45:44.784327,615,470.39486065883307
2015-10-28 16:45:44.784434,623,470.41427208721575
2015-10-28 16:45:44.784505,628,470.43368351559832
2015-10-28 16:45:44.799742,631,470.453094943981
2015-10-28 16:45:44.799934,636,470.47250637236357
2015-10-28 16:45:44.800020,643,470.49191780074625
2015-10-28 16:45:44.800123,648,470.51132922912888
2015-10-28 16:45:44.815697,648,470.5307406575115
2015-10-28 16:45:44.815749,648,470.55015208589413
2015-10-28 16:45:44.815786,649,470.51003513390339
2015-10-28 16:45:44.831771,649,470.91056582492854
2015-10-28 16:45:44.831870,646,471.84716045388706
2015-10-28 16:45:44.831921,641,472.73716765472722
2015-10-28 16:45:44.848067,633,473.62717485556732
2015-10-28 16:45:44.848156,621,474.51718205640742
2015-10-28 16:45:44.848220,606,475.40718925724769
2015-10-28 16:45:44.863871,590,476.2971964580878
2015-10-28 16:45:44.863960,573,477.18720365892796
2015-10-28 16:45:44.864024,556,478.07721085976806
2015-10-28 16:45:44.879970,540,478.96721806060833
2015-10-28 16:45:44.880083,528,479.85722526144843
2015-10-28 16:45:44.880147,518,480.74723246228854
2015-10-28 16:45:44.895940,510,481.63723966312864
2015-10-28 16:45:44.896029,504,482.52724686396891
2015-10-28 16:45:44.896094,500,483.41725406480907
2015-10-28 16:45:44.911994,496,484.30726126564917
2015-10-28 16:45:44.912115,494,485.19726846648928
2015-10-28 16:45:44.912180,493,486.08727566732955
2015-10-28 16:45:44.927764,493,486.97728286816965
2015-10-28 16:45:44.928057,493,487.86729006900981
2015-10-28 16:45:44.928234,492,488.75729726984991
2015-10-28 16:45:44.943806,491,489.64730447069019
2015-10-28 16:45:44.943899,494,490.53731167153029
2015-10-28 16:45:44.943974,495,491.42731887237039
2015-10-28 16:45:44.959650,496,492.31732607321067
2015-10-28 16:45:44.959707,498,493.20733327405077
2015-10-28 16:45:44.959743,500,494.09734047489104
2015-10-28 16:45:44.975646,501,494.98734767573114
2015-10-28 16:45:44.975735,501,495.8773548765713
2015-10-28 16:45:44.975801,502,496.76736207741141
2015-10-28 16:45:44.991675,505,497.65736927825168
2015-10-28 16:45:44.991761,504,498.54737647909178
2015-10-28 16:45:44.991834,503,499.43738367993188
2015-10-28 16:45:45.008077,505,500.32739088077204
2015-10-28 16:45:45.008335,506,501.21739808161215
2015-10-28 16:45:45.008413,506,502.10740528245225
2015-10-28 16:45:45.023627,506,502.99741248329246
2015-10-28 16:45:45.023763,506,503.88741968413257
2015-10-28 16:45:45.023839,506,504.77742688497267
2015-10-28 16:45:45.039897,503,505.66743408581283
2015-10-28 16:45:45.040231,502,506.55744128665293
2015-10-28 16:45:45.040309,502,507.44744848749315
2015-10-28 16:45:45.040411,502,508.33745568833325
2015-10-28 16:45:45.058650,501,509.22746288917335
2015-10-28 16:45:45.058817,502,510.11747009001346
2015-10-28 16:45:45.058898,502,511.00747729085367
2015-10-28 16:45:45.071851,500,511.89748449169377
2015-10-28 16:45:45.071954,499,512.78749169253388
2015-10-28 16:45:45.072025,499,513.67749889337404
2015-10-28 16:45:45.088030,500,514.5675060942142
2015-10-28 16:45:45.088183,499,515.45751329505435
2015-10-28 16:45:45.088284,497,516.3475204958944
2015-10-28 16:45:45.104019,497,517.23752769673456
2015-10-28 16:45:45.104171,499,518.12753489757472
2015-10-28 16:45:45.104304,498,519.01754209841476
2015-10-28 16:45:45.119813,496,519.90754929925504
2015-10-28 16:45:45.119902,497,520.7781450717124
2015-10-28 16:45:45.119966,499,521.64874084416999
2015-10-28 16:45:45.135846,498,522.51933661662747
2015-10-28 16:45:45.135937,497,523.38993238908495
2015-10-28 16:45:45.136000,499,524.26052816154242
2015-10-28 16:45:45.151783,500,525.1311239339999
2015-10-28 16:45:45.151860,500,526.00171970645738
2015-10-28 16:45:45.151940,499,526.87231547891497
2015-10-28 16:45:45.167680,502,527.74291125137233
2015-10-28 16:45:45.167770,500,528.61350702382981
2015-10-28 16:45:45.167834,498,529.4841027962874
2015-10-28 16:45:45.183891,497,530.35469856874477
2015-10-28 16:45:45.184008,498,531.22529434120236
2015-10-28 16:45:45.184072,498,532.09589011365983
2015-10-28 16:45:45.199562,497,532.96648588611731
2015-10-28 16:45:45.199689,496,533.83708165857479
2015-10-28 16:45:45.199782,498,534.70767743103227
2015-10-28 16:45:45.215575,497,535.57827320348974
2015-10-28 16:45:45.215667,496,536.44886897594733
2015-10-28 16:45:45.215725,497,537.3194647484047
2015-10-28 16:45:45.231565,499,538.19006052086229
2015-10-28 16:45:45.231788,498,539.06065629331977
2015-10-28 16:45:45.231877,497,539.93125206577724
2015-10-28 16:45:45.247543,500,540.80184783823472
2015-10-28 16:45:45.247637,503,541.6724436106922
2015-10-28 16:45:45.247707,507,542.54303938314968
2015-10-28 16:45:45.263729,507,543.41363515560727
2015-10-28 16:45:45.263882,505,544.28423092806463
2015-10-28 16:45:45.263947,508,545.15482670052222
2015-10-28 16:45:45.279540,515,546.0254224729797
2015-10-28 16:45:45.279706,512,546.89601824543718
2015-10-28 16:45:45.279787,507,547.76661401789465
2015-10-28 16:45:45.295529,508,548.63720979035213
2015-10-28 16:45:45.295606,508,549.50780556280961
2015-10-28 16:45:45.295650,506,550.3784013352672
2015-10-28 16:45:45.295692,504,551.24899710772456
2015-10-28 16:45:45.311578,500,552.11959288018215
2015-10-28 16:45:45.311670,498,552.99018865263963
2015-10-28 16:45:45.311720,498,553.86078442509711
2015-10-28 16:45:45.327652,498,554.73138019755459
2015-10-28 16:45:45.327741,497,555.60197597001206
2015-10-28 16:45:45.327805,496,556.47257174246965
2015-10-28 16:45:45.343622,497,557.34316751492702
2015-10-28 16:45:45.343715,497,558.27329166775803
2015-10-28 16:45:45.343779,495,558.76276817757298
2015-10-28 16:45:45.359607,495,558.71618074945457
2015-10-28 16:45:45.359852,499,558.71618074945457
2015-10-28 16:45:45.359980,505,558.71618074945457
2015-10-28 16:45:45.375551,502,558.71618074945457
2015-10-28 16:45:45.375688,491,558.71618074945457
2015-10-28 16:45:45.375730,475,558.71618074945457
2015-10-28 16:45:45.391498,472,558.71618074945457
2015-10-28 16:45:45.391554,462,558.71618074945457
2015-10-28 16:45:45.391654,451,558.71747484468017
2015-10-28 16:45:45.407695,436,558.73818036828823
2015-10-28 16:45:45.407784,389,558.58952701618227
2015-10-28 16:45:45.407850,350,558.12482413936596
2015-10-28 16:45:45.423465,396,557.67953269093221
2015-10-28 16:45:45.423519,466,557.23424124249846
2015-10-28 16:45:45.423555,500,556.78894979406482
2015-10-28 16:45:45.439528,515,556.34365834563107
2015-10-28 16:45:45.439584,525,555.89836689719732
2015-10-28 16:45:45.439620,530,555.45307544876368
2015-10-28 16:45:45.455517,531,555.00778400032993
2015-10-28 16:45:45.455663,532,554.56249255189618
2015-10-28 16:45:45.455782,535,554.11720110346255
2015-10-28 16:45:45.471451,537,553.6719096550288
2015-10-28 16:45:45.471530,537,553.22661820659516
2015-10-28 16:45:45.471597,538,552.78132675816141
2015-10-28 16:45:45.487442,541,552.33603530972766
2015-10-28 16:45:45.487515,545,551.89074386129403
2015-10-28 16:45:45.487554,545,551.44545241286028
2015-10-28 16:45:45.503443,546,551.00016096442653
2015-10-28 16:45:45.503567,548,550.55486951599289
2015-10-28 16:45:45.503614,550,550.10957806755914
2015-10-28 16:45:45.519418,549,549.66428661912539
2015-10-28 16:45:45.519505,549,549.21899517069176
2015-10-28 16:45:45.519561,553,548.77370372225801
2015-10-28 16:45:45.535434,556,548.32841227382437
2015-10-28 16:45:45.535500,556,547.88312082539062
2015-10-28 16:45:45.535537,557,547.43782937695687
2015-10-28 16:45:45.535572,560,546.99253792852323
2015-10-28 16:45:45.551473,562,546.54724648008948
2015-10-28 16:45:45.551538,561,546.10195503165573
2015-10-28 16:45:45.551606,563,545.6566635832221
2015-10-28 16:45:45.567428,566,545.21137213478835
2015-10-28 16:45:45.567482,566,544.7660806863546
2015-10-28 16:45:45.567518,569,544.32078923792096
2015-10-28 16:45:45.583442,574,543.87549778948721
2015-10-28 16:45:45.583532,580,543.43020634105346
2015-10-28 16:45:45.583602,586,542.98491489261983
2015-10-28 16:45:45.599486,592,542.53962344418608
2015-10-28 16:45:45.599575,598,542.09433199575244
2015-10-28 16:45:45.599644,604,541.64904054731869
2015-10-28 16:45:45.615416,609,541.20374909888494
2015-10-28 16:45:45.615500,614,540.75845765045131
2015-10-28 16:45:45.615564,620,540.31316620201756
2015-10-28 16:45:45.631457,625,539.86787475358381
2015-10-28 16:45:45.631534,627,539.42258330515006
2015-10-28 16:45:45.631598,627,538.97729185671631
2015-10-28 16:45:45.648803,627,538.72257248743233
2015-10-28 16:45:45.648915,625,538.44197121363811
2015-10-28 16:45:45.648981,622,538.16136993984389
2015-10-28 16:45:45.663514,615,537.88076866604968
2015-10-28 16:45:45.663617,604,537.60016739225546
2015-10-28 16:45:45.663696,590,537.31956611846135
2015-10-28 16:45:45.679855,573,537.03896484466713
2015-10-28 16:45:45.680012,556,536.7583635708728
2015-10-28 16:45:45.680131,541,536.4777622970787
2015-10-28 16:45:45.695397,526,536.19716102328448
2015-10-28 16:45:45.695484,514,535.91655974949026
2015-10-28 16:45:45.695549,505,535.63595847569604
2015-10-28 16:45:45.711457,500,535.35535720190194
2015-10-28 16:45:45.711607,494,535.07475592810761
2015-10-28 16:45:45.711677,488,534.7941546543135
2015-10-28 16:45:45.727597,486,534.51355338051928
2015-10-28 16:45:45.727687,486,534.23295210672507
2015-10-28 16:45:45.727752,484,533.95235083293085
2015-10-28 16:45:45.743541,482,533.67174955913663
2015-10-28 16:45:45.743619,484,533.39114828534241
2015-10-28 16:45:45.743663,485,533.11054701154819
2015-10-28 16:45:45.759376,486,532.82994573775409
2015-10-28 16:45:45.759482,487,532.54934446395987
2015-10-28 16:45:45.759549,489,532.26874319016565
2015-10-28 16:45:45.775442,490,531.98814191637143
2015-10-28 16:45:45.775565,492,531.70754064257721
2015-10-28 16:45:45.775633,494,531.426939368783
2015-10-28 16:45:45.775696,496,531.14633809498889
2015-10-28 16:45:45.791442,497,530.86573682119467
2015-10-28 16:45:45.791531,497,530.58513554740045
2015-10-28 16:45:45.791595,497,530.30453427360624
2015-10-28 16:45:45.807457,500,530.02393299981213
2015-10-28 16:45:45.807547,502,529.74333172601791
2015-10-28 16:45:45.807611,502,529.4627304522237
2015-10-28 16:45:45.823638,502,529.18212917842959
2015-10-28 16:45:45.823727,503,528.90152790463537
2015-10-28 16:45:45.823791,502,528.62092663084115
2015-10-28 16:45:45.839549,502,528.34032535704705
2015-10-28 16:45:45.839639,502,528.05972408325283
2015-10-28 16:45:45.839703,501,527.77912280945873
2015-10-28 16:45:45.855567,499,527.49852153566462
2015-10-28 16:45:45.855658,498,527.2179202618704
2015-10-28 16:45:45.855722,496,526.9373189880763
2015-10-28 16:45:45.871604,497,526.65671771428219
2015-10-28 16:45:45.871694,496,526.37611644048798
2015-10-28 16:45:45.871896,495,526.09551516669387
2015-10-28 16:45:45.887696,494,525.81491389289977
2015-10-28 16:45:45.887882,494,525.53431261910555
2015-10-28 16:45:45.887954,494,525.25371134531144
2015-10-28 16:45:45.903431,493,524.97311007151734
2015-10-28 16:45:45.903670,494,524.69250879772312
2015-10-28 16:45:45.903753,494,524.41190752392902
2015-10-28 16:45:45.919438,491,524.13130625013491
2015-10-28 16:45:45.919528,491,523.8494108811152
2015-10-28 16:45:45.919592,491,523.54810408371293
2015-10-28 16:45:45.935378,491,523.41615616202478
2015-10-28 16:45:45.935533,490,523.60025776504699
2015-10-28 16:45:45.935614,489,523.76494793968664
2015-10-28 16:45:45.951609,490,523.92963811432617
2015-10-28 16:45:45.951702,490,524.09432828896581
2015-10-28 16:45:45.951767,490,524.25901846360534
2015-10-28 16:45:45.967622,490,524.42370863824499
2015-10-28 16:45:45.967714,490,524.58839881288452
2015-10-28 16:45:45.967778,491,524.75308898752417
2015-10-28 16:45:45.983413,489,524.9177791621637
2015-10-28 16:45:45.983518,489,525.08246933680334
2015-10-28 16:45:45.983584,490,525.24715951144287
2015-10-28 16:45:45.999377,488,525.41184968608241
2015-10-28 16:45:45.999442,487,525.57653986072205
2015-10-28 16:45:45.999541,487,525.74123003536158
2015-10-28 16:45:46.015414,488,525.90592021000111
2015-10-28 16:45:46.015522,487,526.07061038464064
2015-10-28 16:45:46.015586,486,526.23530055928018
2015-10-28 16:45:46.015648,485,526.39999073391971
2015-10-28 16:45:46.031452,485,526.56468090855924
2015-10-28 16:45:46.031558,483,526.72937108319877
2015-10-28 16:45:46.031623,482,526.8940612578383
2015-10-28 16:45:46.047487,485,527.05875143247795
2015-10-28 16:45:46.047602,489,527.22344160711748
2015-10-28 16:45:46.047668,493,527.38813178175701
2015-10-28 16:45:46.063417,491,527.55282195639654
2015-10-28 16:45:46.063488,492,527.71751213103607
2015-10-28 16:45:46.063532,498,527.88220230567561
2015-10-28 16:45:46.079362,501,528.04689248031514
2015-10-28 16:45:46.079416,496,528.21158265495467
2015-10-28 16:45:46.079467,495,528.37627282959431
2015-10-28 16:45:46.095435,497,528.54096300423384
2015-10-28 16:45:46.095493,495,528.70565317887338
2015-10-28 16:45:46.095532,490,528.87034335351302
2015-10-28 16:45:46.111361,487,529.03503352815255
2015-10-28 16:45:46.111438,485,529.19972370279208
2015-10-28 16:45:46.111571,482,529.36441387743162
2015-10-28 16:45:46.127368,481,529.52910405207115
2015-10-28 16:45:46.127436,481,529.69379422671068
2015-10-28 16:45:46.127473,480,529.85848440135021
2015-10-28 16:45:46.143318,480,530.02317457598974
2015-10-28 16:45:46.143397,480,530.18786475062939
2015-10-28 16:45:46.143455,481,530.35255492526892
2015-10-28 16:45:46.159349,479,530.51724509990845
2015-10-28 16:45:46.159477,478,530.6819352745481
2015-10-28 16:45:46.159539,480,530.65605337003785
2015-10-28 16:45:46.175390,480,530.65605337003785
2015-10-28 16:45:46.175555,468,530.65605337003785
2015-10-28 16:45:46.175632,427,530.66770022706737
2015-10-28 16:45:46.191339,400,530.71428765518567
2015-10-28 16:45:46.191405,400,530.76087508330397
2015-10-28 16:45:46.191462,395,530.81039745364387
2015-10-28 16:45:46.207347,394,530.85897248052891
2015-10-28 16:45:46.207577,377,530.79725245278883
2015-10-28 16:45:46.207740,326,530.37333513584747
2015-10-28 16:45:46.223334,340,529.82077648686709
2015-10-28 16:45:46.223439,418,529.26821783788682
2015-10-28 16:45:46.223508,479,528.71565918890644
2015-10-28 16:45:46.239339,503,528.16310053992606
2015-10-28 16:45:46.239448,504,527.6105418909458
2015-10-28 16:45:46.239514,504,527.05798324196542
2015-10-28 16:45:46.255323,505,526.50542459298515
2015-10-28 16:45:46.255462,506,525.95286594400477
2015-10-28 16:45:46.255542,508,525.40030729502439
2015-10-28 16:45:46.271314,511,524.84774864604412
2015-10-28 16:45:46.271420,513,524.29518999706374
2015-10-28 16:45:46.271486,514,523.74263134808336
2015-10-28 16:45:46.271547,516,523.1900726991031
2015-10-28 16:45:46.287491,519,522.63751405012272
2015-10-28 16:45:46.287579,522,522.08495540114234
2015-10-28 16:45:46.287648,523,521.53239675216207
2015-10-28 16:45:46.303502,524,520.97983810318169
2015-10-28 16:45:46.303592,525,520.42727945420143
2015-10-28 16:45:46.303656,526,519.87472080522105
2015-10-28 16:45:46.319603,526,519.32216215624067
2015-10-28 16:45:46.319695,527,518.7696035072604
2015-10-28 16:45:46.319760,528,518.21704485828002
2015-10-28 16:45:46.335482,529,517.66448620929964
2015-10-28 16:45:46.335571,529,517.11192756031937
2015-10-28 16:45:46.335635,531,516.55936891133899
2015-10-28 16:45:46.351454,533,516.00681026235861
2015-10-28 16:45:46.351545,533,515.45425161337835
2015-10-28 16:45:46.351608,534,514.90169296439797
2015-10-28 16:45:46.367484,536,514.34913431541759
2015-10-28 16:45:46.367573,541,513.79657566643732
2015-10-28 16:45:46.367637,545,513.24401701745694
2015-10-28 16:45:46.383240,547,512.69145836847656
2015-10-28 16:45:46.383313,552,512.13889971949629
2015-10-28 16:45:46.383358,558,511.58634107051603
2015-10-28 16:45:46.399287,563,511.03378242153576
2015-10-28 16:45:46.399387,568,510.48122377255544
2015-10-28 16:45:46.399459,575,509.92866512357517
2015-10-28 16:45:46.415625,580,509.37610647459479
2015-10-28 16:45:46.415724,585,508.82354782561447
2015-10-28 16:45:46.415786,590,508.2709891766342
2015-10-28 16:45:46.431240,595,507.71843052765388
2015-10-28 16:45:46.431334,599,507.16587187867361
2015-10-28 16:45:46.431402,599,506.61331322969323
2015-10-28 16:45:46.451945,598,506.06075458071297
2015-10-28 16:45:46.452246,598,505.5081959317327
2015-10-28 16:45:46.452990,596,504.95563728275238
2015-10-28 16:45:46.477235,590,504.44159785930981
2015-10-28 16:45:46.477360,580,503.92755843586713
2015-10-28 16:45:46.477428,569,503.41351901242456
2015-10-28 16:45:46.483046,553,502.89947958898188
2015-10-28 16:45:46.483645,534,502.38544016553931
