2015-10-28 16:45:32.899224 , 518
2015-10-28 16:45:32.899317 , 520
2015-10-28 16:45:32.899389 , 519
2015-10-28 16:45:32.915218 , 519
2015-10-28 16:45:32.915299 , 521
2015-10-28 16:45:32.915366 , 522
2015-10-28 16:45:32.931500 , 523
2015-10-28 16:45:32.931553 , 527
2015-10-28 16:45:32.931589 , 529
2015-10-28 16:45:32.947169 , 523
2015-10-28 16:45:32.947222 , 504
2015-10-28 16:45:32.947259 , 469
2015-10-28 16:45:32.963192 , 464
2015-10-28 16:45:32.963283 , 476
2015-10-28 16:45:32.963351 , 476
2015-10-28 16:45:32.979267 , 477
2015-10-28 16:45:32.979359 , 442
2015-10-28 16:45:32.979424 , 384
2015-10-28 16:45:32.995187 , 422
2015-10-28 16:45:32.995237 , 495
2015-10-28 16:45:32.995270 , 542
2015-10-28 16:45:33.011325 , 562
2015-10-28 16:45:33.011419 , 566
2015-10-28 16:45:33.011485 , 567
2015-10-28 16:45:33.027324 , 571
2015-10-28 16:45:33.027401 , 573
2015-10-28 16:45:33.027455 , 577
2015-10-28 16:45:33.043228 , 579
2015-10-28 16:45:33.043339 , 581
2015-10-28 16:45:33.043405 , 583
2015-10-28 16:45:33.059308 , 585
2015-10-28 16:45:33.059416 , 587
2015-10-28 16:45:33.059480 , 588
2015-10-28 16:45:33.075192 , 589
2015-10-28 16:45:33.075298 , 591
2015-10-28 16:45:33.075363 , 591
2015-10-28 16:45:33.075425 , 591
2015-10-28 16:45:33.091264 , 593
2015-10-28 16:45:33.091355 , 595
2015-10-28 16:45:33.091420 , 596
2015-10-28 16:45:33.107379 , 598
2015-10-28 16:45:33.107525 , 601
2015-10-28 16:45:33.107650 , 605
2015-10-28 16:45:33.123338 , 606
2015-10-28 16:45:33.123427 , 606
2015-10-28 16:45:33.123661 , 607
2015-10-28 16:45:33.139206 , 610
2015-10-28 16:45:33.139301 , 613
2015-10-28 16:45:33.139378 , 615
2015-10-28 16:45:33.155204 , 619
2015-10-28 16:45:33.155304 , 623
2015-10-28 16:45:33.155384 , 627
2015-10-28 16:45:33.171223 , 631
2015-10-28 16:45:33.171308 , 638
2015-10-28 16:45:33.171374 , 645
2015-10-28 16:45:33.187633 , 649
2015-10-28 16:45:33.187720 , 653
2015-10-28 16:45:33.187787 , 659
2015-10-28 16:45:33.203224 , 663
2015-10-28 16:45:33.203370 , 664
2015-10-28 16:45:33.203439 , 663
2015-10-28 16:45:33.220315 , 660
2015-10-28 16:45:33.220373 , 656
2015-10-28 16:45:33.220410 , 650
2015-10-28 16:45:33.235085 , 641
2015-10-28 16:45:33.235159 , 628
2015-10-28 16:45:33.235204 , 613
2015-10-28 16:45:33.251448 , 594
2015-10-28 16:45:33.251557 , 576
2015-10-28 16:45:33.251630 , 561
2015-10-28 16:45:33.267059 , 548
2015-10-28 16:45:33.267117 , 537
2015-10-28 16:45:33.267156 , 528
2015-10-28 16:45:33.283062 , 522
2015-10-28 16:45:33.283199 , 515
2015-10-28 16:45:33.283271 , 512
2015-10-28 16:45:33.299655 , 509
2015-10-28 16:45:33.302086 , 506
2015-10-28 16:45:33.302161 , 504
2015-10-28 16:45:33.318554 , 506
2015-10-28 16:45:33.319174 , 508
2015-10-28 16:45:33.319258 , 509
2015-10-28 16:45:33.332104 , 507
2015-10-28 16:45:33.332360 , 508
2015-10-28 16:45:33.332436 , 511
2015-10-28 16:45:33.332813 , 512
2015-10-28 16:45:33.347121 , 512
2015-10-28 16:45:33.347230 , 512
2015-10-28 16:45:33.347302 , 512
2015-10-28 16:45:33.363065 , 512
2015-10-28 16:45:33.363148 , 513
2015-10-28 16:45:33.363211 , 513
2015-10-28 16:45:33.379901 , 513
2015-10-28 16:45:33.380004 , 512
2015-10-28 16:45:33.380071 , 512
2015-10-28 16:45:33.398326 , 511
2015-10-28 16:45:33.398420 , 511
2015-10-28 16:45:33.398491 , 512
2015-10-28 16:45:33.411428 , 511
2015-10-28 16:45:33.411513 , 511
2015-10-28 16:45:33.411729 , 512
2015-10-28 16:45:33.431367 , 511
2015-10-28 16:45:33.431458 , 511
2015-10-28 16:45:33.431528 , 512
2015-10-28 16:45:33.443212 , 511
2015-10-28 16:45:33.443303 , 510
2015-10-28 16:45:33.443373 , 508
2015-10-28 16:45:33.459697 , 508
2015-10-28 16:45:33.459790 , 507
2015-10-28 16:45:33.459865 , 505
2015-10-28 16:45:33.475111 , 504
2015-10-28 16:45:33.475389 , 503
2015-10-28 16:45:33.475469 , 503
2015-10-28 16:45:33.491155 , 501
2015-10-28 16:45:33.491249 , 502
2015-10-28 16:45:33.491320 , 504
2015-10-28 16:45:33.507022 , 504
2015-10-28 16:45:33.507121 , 503
2015-10-28 16:45:33.507196 , 502
2015-10-28 16:45:33.523013 , 503
2015-10-28 16:45:33.523113 , 503
2015-10-28 16:45:33.523158 , 501
2015-10-28 16:45:33.538956 , 503
2015-10-28 16:45:33.539061 , 504
2015-10-28 16:45:33.539132 , 502
2015-10-28 16:45:33.554967 , 500
2015-10-28 16:45:33.555083 , 503
2015-10-28 16:45:33.555186 , 504
2015-10-28 16:45:33.570942 , 503
2015-10-28 16:45:33.571007 , 501
2015-10-28 16:45:33.571044 , 503
2015-10-28 16:45:33.571079 , 506
2015-10-28 16:45:33.586998 , 506
2015-10-28 16:45:33.587088 , 507
2015-10-28 16:45:33.587165 , 509
2015-10-28 16:45:33.603012 , 507
2015-10-28 16:45:33.603085 , 509
2015-10-28 16:45:33.603134 , 516
2015-10-28 16:45:33.619020 , 514
2015-10-28 16:45:33.619073 , 512
2015-10-28 16:45:33.619109 , 513
2015-10-28 16:45:33.634973 , 514
2015-10-28 16:45:33.635036 , 512
2015-10-28 16:45:33.635081 , 506
2015-10-28 16:45:33.650998 , 503
2015-10-28 16:45:33.651061 , 504
2015-10-28 16:45:33.651114 , 506
2015-10-28 16:45:33.666944 , 504
2015-10-28 16:45:33.667000 , 504
2015-10-28 16:45:33.667036 , 505
2015-10-28 16:45:33.682956 , 505
2015-10-28 16:45:33.683039 , 506
2015-10-28 16:45:33.683100 , 505
2015-10-28 16:45:33.699117 , 505
2015-10-28 16:45:33.699296 , 508
2015-10-28 16:45:33.699395 , 511
2015-10-28 16:45:33.714948 , 507
2015-10-28 16:45:33.715032 , 500
2015-10-28 16:45:33.715100 , 490
2015-10-28 16:45:33.730938 , 486
2015-10-28 16:45:33.731037 , 473
2015-10-28 16:45:33.731111 , 461
2015-10-28 16:45:33.746934 , 439
2015-10-28 16:45:33.746988 , 386
2015-10-28 16:45:33.747031 , 359
2015-10-28 16:45:33.762964 , 412
2015-10-28 16:45:33.763057 , 478
2015-10-28 16:45:33.763122 , 509
2015-10-28 16:45:33.779102 , 525
2015-10-28 16:45:33.779211 , 534
2015-10-28 16:45:33.779275 , 537
2015-10-28 16:45:33.795180 , 539
2015-10-28 16:45:33.795339 , 543
2015-10-28 16:45:33.795404 , 545
2015-10-28 16:45:33.810909 , 546
2015-10-28 16:45:33.811023 , 547
2015-10-28 16:45:33.811075 , 550
2015-10-28 16:45:33.811123 , 553
2015-10-28 16:45:33.826904 , 554
2015-10-28 16:45:33.826955 , 556
2015-10-28 16:45:33.826992 , 558
2015-10-28 16:45:33.843035 , 558
2015-10-28 16:45:33.843096 , 558
2015-10-28 16:45:33.843140 , 559
2015-10-28 16:45:33.859256 , 560
2015-10-28 16:45:33.859409 , 562
2015-10-28 16:45:33.859531 , 563
2015-10-28 16:45:33.875214 , 567
2015-10-28 16:45:33.875303 , 570
2015-10-28 16:45:33.875367 , 572
2015-10-28 16:45:33.891068 , 573
2015-10-28 16:45:33.891156 , 576
2015-10-28 16:45:33.891221 , 579
2015-10-28 16:45:33.907193 , 579
2015-10-28 16:45:33.907282 , 581
2015-10-28 16:45:33.907346 , 586
2015-10-28 16:45:33.923211 , 591
2015-10-28 16:45:33.923301 , 595
2015-10-28 16:45:33.923365 , 600
2015-10-28 16:45:33.939166 , 607
2015-10-28 16:45:33.939256 , 614
2015-10-28 16:45:33.939320 , 620
2015-10-28 16:45:33.955153 , 626
2015-10-28 16:45:33.955243 , 632
2015-10-28 16:45:33.955307 , 636
2015-10-28 16:45:33.971006 , 640
2015-10-28 16:45:33.971106 , 641
2015-10-28 16:45:33.971233 , 642
2015-10-28 16:45:33.987130 , 639
2015-10-28 16:45:33.987223 , 635
2015-10-28 16:45:33.987289 , 628
2015-10-28 16:45:34.003151 , 617
2015-10-28 16:45:34.003244 , 601
2015-10-28 16:45:34.003309 , 581
2015-10-28 16:45:34.018975 , 562
2015-10-28 16:45:34.019163 , 546
2015-10-28 16:45:34.019301 , 531
2015-10-28 16:45:34.035095 , 517
2015-10-28 16:45:34.035201 , 507
2015-10-28 16:45:34.035265 , 500
2015-10-28 16:45:34.051102 , 493
2015-10-28 16:45:34.051208 , 488
2015-10-28 16:45:34.051274 , 487
2015-10-28 16:45:34.051336 , 485
2015-10-28 16:45:34.067242 , 484
2015-10-28 16:45:34.067350 , 485
2015-10-28 16:45:34.067429 , 486
2015-10-28 16:45:34.082984 , 485
2015-10-28 16:45:34.083071 , 486
2015-10-28 16:45:34.083135 , 488
2015-10-28 16:45:34.099178 , 490
2015-10-28 16:45:34.099363 , 490
2015-10-28 16:45:34.099444 , 491
2015-10-28 16:45:34.115165 , 493
2015-10-28 16:45:34.115266 , 495
2015-10-28 16:45:34.115353 , 496
2015-10-28 16:45:34.131057 , 497
2015-10-28 16:45:34.131146 , 497
2015-10-28 16:45:34.131210 , 500
2015-10-28 16:45:34.147158 , 501
2015-10-28 16:45:34.147319 , 500
2015-10-28 16:45:34.147394 , 502
2015-10-28 16:45:34.163122 , 503
2015-10-28 16:45:34.163211 , 501
2015-10-28 16:45:34.163275 , 501
2015-10-28 16:45:34.179092 , 501
2015-10-28 16:45:34.179182 , 500
2015-10-28 16:45:34.179246 , 497
2015-10-28 16:45:34.195056 , 496
2015-10-28 16:45:34.195147 , 496
2015-10-28 16:45:34.195211 , 494
2015-10-28 16:45:34.210926 , 493
2015-10-28 16:45:34.211014 , 493
2015-10-28 16:45:34.211079 , 493
2015-10-28 16:45:34.226866 , 492
2015-10-28 16:45:34.226958 , 490
2015-10-28 16:45:34.227023 , 490
2015-10-28 16:45:34.242920 , 490
2015-10-28 16:45:34.243012 , 489
2015-10-28 16:45:34.243077 , 487
2015-10-28 16:45:34.259049 , 486
2015-10-28 16:45:34.259141 , 487
2015-10-28 16:45:34.259205 , 486
2015-10-28 16:45:34.274910 , 484
2015-10-28 16:45:34.275016 , 484
2015-10-28 16:45:34.275081 , 484
2015-10-28 16:45:34.290875 , 483
2015-10-28 16:45:34.290981 , 481
2015-10-28 16:45:34.291047 , 481
2015-10-28 16:45:34.306986 , 482
2015-10-28 16:45:34.307093 , 480
2015-10-28 16:45:34.307158 , 479
2015-10-28 16:45:34.307219 , 479
2015-10-28 16:45:34.323064 , 480
2015-10-28 16:45:34.323153 , 480
2015-10-28 16:45:34.323217 , 476
2015-10-28 16:45:34.338996 , 475
2015-10-28 16:45:34.339086 , 477
2015-10-28 16:45:34.339149 , 477
2015-10-28 16:45:34.355025 , 478
2015-10-28 16:45:34.355185 , 481
2015-10-28 16:45:34.355314 , 477
2015-10-28 16:45:34.371107 , 475
2015-10-28 16:45:34.371198 , 482
2015-10-28 16:45:34.371264 , 486
2015-10-28 16:45:34.387034 , 483
2015-10-28 16:45:34.387123 , 480
2015-10-28 16:45:34.387188 , 476
2015-10-28 16:45:34.402812 , 472
2015-10-28 16:45:34.402876 , 469
2015-10-28 16:45:34.402920 , 468
2015-10-28 16:45:34.419062 , 468
2015-10-28 16:45:34.419210 , 468
2015-10-28 16:45:34.419296 , 469
2015-10-28 16:45:34.435030 , 468
2015-10-28 16:45:34.435119 , 468
2015-10-28 16:45:34.435183 , 468
2015-10-28 16:45:34.450819 , 468
2015-10-28 16:45:34.450909 , 470
2015-10-28 16:45:34.450974 , 470
2015-10-28 16:45:34.466774 , 457
2015-10-28 16:45:34.466837 , 414
2015-10-28 16:45:34.466895 , 386
2015-10-28 16:45:34.482877 , 385
2015-10-28 16:45:34.482969 , 380
2015-10-28 16:45:34.483033 , 378
2015-10-28 16:45:34.498909 , 360
2015-10-28 16:45:34.499002 , 310
2015-10-28 16:45:34.499066 , 330
2015-10-28 16:45:34.514906 , 410
2015-10-28 16:45:34.515014 , 471
2015-10-28 16:45:34.515080 , 494
2015-10-28 16:45:34.530891 , 496
2015-10-28 16:45:34.530999 , 494
2015-10-28 16:45:34.531064 , 497
2015-10-28 16:45:34.546765 , 500
2015-10-28 16:45:34.546870 , 500
2015-10-28 16:45:34.546934 , 500
2015-10-28 16:45:34.546995 , 502
2015-10-28 16:45:34.562728 , 504
2015-10-28 16:45:34.562781 , 505
2015-10-28 16:45:34.562833 , 505
2015-10-28 16:45:34.578755 , 507
2015-10-28 16:45:34.578862 , 508
2015-10-28 16:45:34.578931 , 509
2015-10-28 16:45:34.594971 , 511
2015-10-28 16:45:34.595061 , 513
2015-10-28 16:45:34.595125 , 513
2015-10-28 16:45:34.610935 , 513
2015-10-28 16:45:34.611026 , 514
2015-10-28 16:45:34.611100 , 517
2015-10-28 16:45:34.626948 , 518
2015-10-28 16:45:34.627038 , 518
2015-10-28 16:45:34.627102 , 520
2015-10-28 16:45:34.642936 , 522
2015-10-28 16:45:34.643027 , 522
2015-10-28 16:45:34.643091 , 525
2015-10-28 16:45:34.659011 , 528
2015-10-28 16:45:34.659113 , 531
2015-10-28 16:45:34.659178 , 534
2015-10-28 16:45:34.674954 , 538
2015-10-28 16:45:34.675044 , 544
2015-10-28 16:45:34.675109 , 550
2015-10-28 16:45:34.690733 , 557
2015-10-28 16:45:34.690798 , 560
2015-10-28 16:45:34.690845 , 567
2015-10-28 16:45:34.707022 , 573
2015-10-28 16:45:34.707116 , 577
2015-10-28 16:45:34.707181 , 579
2015-10-28 16:45:34.723005 , 584
2015-10-28 16:45:34.723133 , 585
2015-10-28 16:45:34.723198 , 583
2015-10-28 16:45:34.738795 , 580
2015-10-28 16:45:34.738889 , 576
2015-10-28 16:45:34.738953 , 569
2015-10-28 16:45:34.754845 , 556
2015-10-28 16:45:34.754954 , 538
2015-10-28 16:45:34.755019 , 520
2015-10-28 16:45:34.770768 , 502
2015-10-28 16:45:34.770873 , 486
2015-10-28 16:45:34.770937 , 473
2015-10-28 16:45:34.786833 , 463
2015-10-28 16:45:34.786939 , 455
2015-10-28 16:45:34.787005 , 448
2015-10-28 16:45:34.787067 , 445
2015-10-28 16:45:34.803029 , 441
2015-10-28 16:45:34.803121 , 438
2015-10-28 16:45:34.803186 , 436
2015-10-28 16:45:34.819004 , 437
2015-10-28 16:45:34.819141 , 438
2015-10-28 16:45:34.819236 , 437
2015-10-28 16:45:34.834993 , 437
2015-10-28 16:45:34.835083 , 440
2015-10-28 16:45:34.835156 , 442
2015-10-28 16:45:34.850879 , 442
2015-10-28 16:45:34.850968 , 444
2015-10-28 16:45:34.851032 , 449
2015-10-28 16:45:34.866746 , 452
2015-10-28 16:45:34.866836 , 452
2015-10-28 16:45:34.866900 , 454
2015-10-28 16:45:34.882878 , 457
2015-10-28 16:45:34.882966 , 457
2015-10-28 16:45:34.883029 , 456
2015-10-28 16:45:34.898989 , 457
2015-10-28 16:45:34.899081 , 459
2015-10-28 16:45:34.899145 , 459
2015-10-28 16:45:34.914848 , 459
2015-10-28 16:45:34.914938 , 460
2015-10-28 16:45:34.915021 , 461
2015-10-28 16:45:34.930848 , 462
2015-10-28 16:45:34.931039 , 461
2015-10-28 16:45:34.931237 , 461
2015-10-28 16:45:34.946863 , 461
2015-10-28 16:45:34.946959 , 461
2015-10-28 16:45:34.947029 , 462
2015-10-28 16:45:34.962918 , 463
2015-10-28 16:45:34.963011 , 464
2015-10-28 16:45:34.963075 , 463
2015-10-28 16:45:34.978743 , 463
2015-10-28 16:45:34.978834 , 464
2015-10-28 16:45:34.978898 , 462
2015-10-28 16:45:34.994789 , 462
2015-10-28 16:45:34.994896 , 464
2015-10-28 16:45:34.994960 , 466
2015-10-28 16:45:35.010851 , 466
2015-10-28 16:45:35.011010 , 466
2015-10-28 16:45:35.011077 , 466
2015-10-28 16:45:35.026850 , 467
2015-10-28 16:45:35.026959 , 467
2015-10-28 16:45:35.027025 , 465
2015-10-28 16:45:35.027087 , 467
2015-10-28 16:45:35.042821 , 469
2015-10-28 16:45:35.042910 , 468
2015-10-28 16:45:35.042974 , 468
2015-10-28 16:45:35.058800 , 471
2015-10-28 16:45:35.058891 , 472
2015-10-28 16:45:35.058954 , 473
2015-10-28 16:45:35.074850 , 474
2015-10-28 16:45:35.074954 , 475
2015-10-28 16:45:35.075019 , 475
2015-10-28 16:45:35.090900 , 475
2015-10-28 16:45:35.090991 , 475
2015-10-28 16:45:35.091056 , 476
2015-10-28 16:45:35.106905 , 476
2015-10-28 16:45:35.107024 , 475
2015-10-28 16:45:35.107088 , 478
2015-10-28 16:45:35.122644 , 481
2015-10-28 16:45:35.122732 , 482
2015-10-28 16:45:35.122795 , 486
2015-10-28 16:45:35.138690 , 490
2015-10-28 16:45:35.138809 , 490
2015-10-28 16:45:35.138872 , 491
2015-10-28 16:45:35.154862 , 497
2015-10-28 16:45:35.154957 , 497
2015-10-28 16:45:35.155049 , 496
2015-10-28 16:45:35.170975 , 498
2015-10-28 16:45:35.171083 , 498
2015-10-28 16:45:35.171148 , 495
2015-10-28 16:45:35.186877 , 488
2015-10-28 16:45:35.186999 , 485
2015-10-28 16:45:35.187064 , 483
2015-10-28 16:45:35.202589 , 484
2015-10-28 16:45:35.202682 , 485
2015-10-28 16:45:35.202749 , 487
2015-10-28 16:45:35.218735 , 486
2015-10-28 16:45:35.218826 , 486
2015-10-28 16:45:35.218890 , 486
2015-10-28 16:45:35.234930 , 485
2015-10-28 16:45:35.235052 , 487
2015-10-28 16:45:35.235125 , 488
2015-10-28 16:45:35.250768 , 488
2015-10-28 16:45:35.250875 , 480
2015-10-28 16:45:35.250941 , 453
2015-10-28 16:45:35.266800 , 416
2015-10-28 16:45:35.266961 , 415
2015-10-28 16:45:35.267026 , 420
2015-10-28 16:45:35.282666 , 416
2015-10-28 16:45:35.282771 , 407
2015-10-28 16:45:35.282836 , 356
2015-10-28 16:45:35.282898 , 331
2015-10-28 16:45:35.298916 , 402
2015-10-28 16:45:35.299026 , 476
2015-10-28 16:45:35.299092 , 513
2015-10-28 16:45:35.314888 , 523
2015-10-28 16:45:35.314979 , 524
2015-10-28 16:45:35.315044 , 524
2015-10-28 16:45:35.330724 , 525
2015-10-28 16:45:35.330814 , 529
2015-10-28 16:45:35.330879 , 533
2015-10-28 16:45:35.346556 , 533
2015-10-28 16:45:35.346622 , 535
2015-10-28 16:45:35.346666 , 538
2015-10-28 16:45:35.362493 , 540
2015-10-28 16:45:35.362548 , 540
2015-10-28 16:45:35.362585 , 542
2015-10-28 16:45:35.378482 , 545
2015-10-28 16:45:35.378565 , 547
2015-10-28 16:45:35.378629 , 547
2015-10-28 16:45:35.395243 , 548
2015-10-28 16:45:35.395474 , 551
2015-10-28 16:45:35.395541 , 551
2015-10-28 16:45:35.410519 , 552
2015-10-28 16:45:35.410608 , 555
2015-10-28 16:45:35.410740 , 559
2015-10-28 16:45:35.426559 , 560
2015-10-28 16:45:35.426753 , 560
2015-10-28 16:45:35.426851 , 563
2015-10-28 16:45:35.442466 , 567
2015-10-28 16:45:35.442558 , 571
2015-10-28 16:45:35.442623 , 574
2015-10-28 16:45:35.458443 , 578
2015-10-28 16:45:35.458499 , 583
2015-10-28 16:45:35.458536 , 588
2015-10-28 16:45:35.474435 , 592
2015-10-28 16:45:35.474492 , 598
2015-10-28 16:45:35.474528 , 605
2015-10-28 16:45:35.490423 , 612
2015-10-28 16:45:35.490527 , 619
2015-10-28 16:45:35.490599 , 625
2015-10-28 16:45:35.506393 , 629
2015-10-28 16:45:35.506457 , 631
2015-10-28 16:45:35.506495 , 634
2015-10-28 16:45:35.522385 , 636
2015-10-28 16:45:35.522485 , 636
2015-10-28 16:45:35.522550 , 631
2015-10-28 16:45:35.522612 , 623
2015-10-28 16:45:35.538437 , 616
2015-10-28 16:45:35.538536 , 605
2015-10-28 16:45:35.538601 , 588
2015-10-28 16:45:35.554448 , 571
2015-10-28 16:45:35.554532 , 553
2015-10-28 16:45:35.554596 , 538
2015-10-28 16:45:35.570622 , 525
2015-10-28 16:45:35.570711 , 516
2015-10-28 16:45:35.570775 , 510
2015-10-28 16:45:35.586442 , 503
2015-10-28 16:45:35.586504 , 497
2015-10-28 16:45:35.586625 , 495
2015-10-28 16:45:35.602453 , 494
2015-10-28 16:45:35.602517 , 494
2015-10-28 16:45:35.602556 , 494
2015-10-28 16:45:35.618438 , 496
2015-10-28 16:45:35.618489 , 499
2015-10-28 16:45:35.618525 , 501
2015-10-28 16:45:35.634418 , 501
2015-10-28 16:45:35.634482 , 503
2015-10-28 16:45:35.634525 , 506
2015-10-28 16:45:35.650447 , 507
2015-10-28 16:45:35.650510 , 509
2015-10-28 16:45:35.650554 , 512
2015-10-28 16:45:35.666363 , 514
2015-10-28 16:45:35.666417 , 514
2015-10-28 16:45:35.666453 , 515
2015-10-28 16:45:35.682326 , 518
2015-10-28 16:45:35.682377 , 517
2015-10-28 16:45:35.682414 , 517
2015-10-28 16:45:35.698375 , 519
2015-10-28 16:45:35.698457 , 521
2015-10-28 16:45:35.698521 , 519
2015-10-28 16:45:35.714421 , 517
2015-10-28 16:45:35.714514 , 518
2015-10-28 16:45:35.714579 , 521
2015-10-28 16:45:35.730424 , 520
2015-10-28 16:45:35.730532 , 519
2015-10-28 16:45:35.730596 , 518
2015-10-28 16:45:35.746301 , 520
2015-10-28 16:45:35.746374 , 520
2015-10-28 16:45:35.746418 , 519
2015-10-28 16:45:35.762337 , 519
2015-10-28 16:45:35.762442 , 519
2015-10-28 16:45:35.762481 , 517
2015-10-28 16:45:35.762516 , 517
2015-10-28 16:45:35.778477 , 519
2015-10-28 16:45:35.778568 , 520
2015-10-28 16:45:35.778630 , 518
2015-10-28 16:45:35.794409 , 519
2015-10-28 16:45:35.794490 , 520
2015-10-28 16:45:35.794546 , 520
2015-10-28 16:45:35.810410 , 518
2015-10-28 16:45:35.810497 , 519
2015-10-28 16:45:35.810569 , 521
2015-10-28 16:45:35.826342 , 520
2015-10-28 16:45:35.826468 , 520
2015-10-28 16:45:35.826508 , 522
2015-10-28 16:45:35.843400 , 523
2015-10-28 16:45:35.843614 , 521
2015-10-28 16:45:35.843688 , 520
2015-10-28 16:45:35.858358 , 521
2015-10-28 16:45:35.858444 , 522
2015-10-28 16:45:35.858513 , 524
2015-10-28 16:45:35.875152 , 522
2015-10-28 16:45:35.875250 , 521
2015-10-28 16:45:35.875317 , 521
2015-10-28 16:45:35.890355 , 521
2015-10-28 16:45:35.890419 , 523
2015-10-28 16:45:35.890457 , 527
2015-10-28 16:45:35.906375 , 528
2015-10-28 16:45:35.906435 , 527
2015-10-28 16:45:35.906473 , 527
2015-10-28 16:45:35.922374 , 531
2015-10-28 16:45:35.922465 , 536
2015-10-28 16:45:35.922517 , 534
2015-10-28 16:45:35.938366 , 532
2015-10-28 16:45:35.938453 , 536
2015-10-28 16:45:35.938515 , 536
2015-10-28 16:45:35.954353 , 531
2015-10-28 16:45:35.954454 , 527
2015-10-28 16:45:35.954529 , 523
2015-10-28 16:45:35.970310 , 521
2015-10-28 16:45:35.970420 , 518
2015-10-28 16:45:35.970492 , 518
2015-10-28 16:45:35.986311 , 518
2015-10-28 16:45:35.986415 , 517
2015-10-28 16:45:35.986483 , 518
2015-10-28 16:45:36.002308 , 519
2015-10-28 16:45:36.002405 , 519
2015-10-28 16:45:36.002466 , 518
2015-10-28 16:45:36.002530 , 519
2015-10-28 16:45:36.018327 , 523
2015-10-28 16:45:36.018381 , 518
2015-10-28 16:45:36.018417 , 508
2015-10-28 16:45:36.034350 , 497
2015-10-28 16:45:36.035894 , 494
2015-10-28 16:45:36.035978 , 484
2015-10-28 16:45:36.050347 , 473
2015-10-28 16:45:36.050432 , 455
2015-10-28 16:45:36.050959 , 401
2015-10-28 16:45:36.066547 , 367
2015-10-28 16:45:36.066641 , 415
2015-10-28 16:45:36.066717 , 482
2015-10-28 16:45:36.082347 , 516
2015-10-28 16:45:36.082443 , 530
2015-10-28 16:45:36.082515 , 539
2015-10-28 16:45:36.098344 , 543
2015-10-28 16:45:36.098452 , 545
2015-10-28 16:45:36.098528 , 545
2015-10-28 16:45:36.114353 , 547
2015-10-28 16:45:36.114443 , 553
2015-10-28 16:45:36.114510 , 554
2015-10-28 16:45:36.130539 , 555
2015-10-28 16:45:36.130626 , 554
2015-10-28 16:45:36.130727 , 555
2015-10-28 16:45:36.146446 , 556
2015-10-28 16:45:36.146533 , 557
2015-10-28 16:45:36.146598 , 556
2015-10-28 16:45:36.162848 , 558
2015-10-28 16:45:36.162944 , 558
2015-10-28 16:45:36.163015 , 558
2015-10-28 16:45:36.178488 , 561
2015-10-28 16:45:36.178588 , 564
2015-10-28 16:45:36.178662 , 565
2015-10-28 16:45:36.194510 , 565
2015-10-28 16:45:36.194711 , 567
2015-10-28 16:45:36.194818 , 569
2015-10-28 16:45:36.210316 , 571
2015-10-28 16:45:36.210379 , 572
2015-10-28 16:45:36.210419 , 575
2015-10-28 16:45:36.226306 , 578
2015-10-28 16:45:36.226412 , 579
2015-10-28 16:45:36.226483 , 583
2015-10-28 16:45:36.242215 , 589
2015-10-28 16:45:36.242327 , 594
2015-10-28 16:45:36.242404 , 597
2015-10-28 16:45:36.258236 , 605
2015-10-28 16:45:36.258365 , 613
2015-10-28 16:45:36.258474 , 620
2015-10-28 16:45:36.258564 , 623
2015-10-28 16:45:36.274459 , 628
2015-10-28 16:45:36.274548 , 629
2015-10-28 16:45:36.274618 , 629
2015-10-28 16:45:36.290287 , 628
2015-10-28 16:45:36.290379 , 628
2015-10-28 16:45:36.290452 , 625
2015-10-28 16:45:36.306273 , 618
2015-10-28 16:45:36.306368 , 606
2015-10-28 16:45:36.306435 , 592
2015-10-28 16:45:36.322267 , 574
2015-10-28 16:45:36.322375 , 555
2015-10-28 16:45:36.322459 , 537
2015-10-28 16:45:36.338226 , 524
2015-10-28 16:45:36.338316 , 513
2015-10-28 16:45:36.338384 , 502
2015-10-28 16:45:36.354601 , 494
2015-10-28 16:45:36.354697 , 490
2015-10-28 16:45:36.354771 , 487
2015-10-28 16:45:36.370477 , 483
2015-10-28 16:45:36.370564 , 480
2015-10-28 16:45:36.370631 , 480
2015-10-28 16:45:36.386229 , 480
2015-10-28 16:45:36.386311 , 480
2015-10-28 16:45:36.386380 , 480
2015-10-28 16:45:36.402403 , 481
2015-10-28 16:45:36.402731 , 481
2015-10-28 16:45:36.402797 , 481
2015-10-28 16:45:36.418199 , 483
2015-10-28 16:45:36.418287 , 488
2015-10-28 16:45:36.418362 , 490
2015-10-28 16:45:36.434293 , 490
2015-10-28 16:45:36.434394 , 491
2015-10-28 16:45:36.434460 , 493
2015-10-28 16:45:36.450199 , 493
2015-10-28 16:45:36.450301 , 494
2015-10-28 16:45:36.450373 , 497
2015-10-28 16:45:36.466178 , 499
2015-10-28 16:45:36.466281 , 500
2015-10-28 16:45:36.466352 , 500
2015-10-28 16:45:36.482180 , 501
2015-10-28 16:45:36.482288 , 501
2015-10-28 16:45:36.482362 , 501
2015-10-28 16:45:36.498140 , 501
2015-10-28 16:45:36.498247 , 501
2015-10-28 16:45:36.498315 , 502
2015-10-28 16:45:36.498385 , 500
2015-10-28 16:45:36.514363 , 502
2015-10-28 16:45:36.514460 , 503
2015-10-28 16:45:36.514536 , 503
2015-10-28 16:45:36.530198 , 502
2015-10-28 16:45:36.530265 , 503
2015-10-28 16:45:36.530303 , 503
2015-10-28 16:45:36.546250 , 502
2015-10-28 16:45:36.546348 , 501
2015-10-28 16:45:36.546421 , 502
2015-10-28 16:45:36.562218 , 503
2015-10-28 16:45:36.562568 , 503
2015-10-28 16:45:36.562710 , 503
2015-10-28 16:45:36.578193 , 504
2015-10-28 16:45:36.578245 , 505
2015-10-28 16:45:36.578280 , 505
2015-10-28 16:45:36.594322 , 507
2015-10-28 16:45:36.594416 , 507
2015-10-28 16:45:36.594514 , 506
2015-10-28 16:45:36.610320 , 506
2015-10-28 16:45:36.610412 , 507
2015-10-28 16:45:36.610476 , 509
2015-10-28 16:45:36.626321 , 512
2015-10-28 16:45:36.626412 , 513
2015-10-28 16:45:36.626476 , 512
2015-10-28 16:45:36.642250 , 513
2015-10-28 16:45:36.642340 , 520
2015-10-28 16:45:36.642405 , 523
2015-10-28 16:45:36.658277 , 522
2015-10-28 16:45:36.658571 , 520
2015-10-28 16:45:36.658757 , 517
2015-10-28 16:45:36.674130 , 511
2015-10-28 16:45:36.674186 , 509
2015-10-28 16:45:36.674224 , 512
2015-10-28 16:45:36.690159 , 513
2015-10-28 16:45:36.690252 , 514
2015-10-28 16:45:36.690317 , 514
2015-10-28 16:45:36.706144 , 514
2015-10-28 16:45:36.706250 , 514
2015-10-28 16:45:36.706316 , 514
2015-10-28 16:45:36.722161 , 515
2015-10-28 16:45:36.722326 , 517
2015-10-28 16:45:36.722435 , 517
2015-10-28 16:45:36.738082 , 511
2015-10-28 16:45:36.738188 , 496
2015-10-28 16:45:36.738234 , 489
2015-10-28 16:45:36.738270 , 482
2015-10-28 16:45:36.754105 , 473
2015-10-28 16:45:36.754184 , 462
2015-10-28 16:45:36.754255 , 431
2015-10-28 16:45:36.770171 , 376
2015-10-28 16:45:36.770239 , 376
2015-10-28 16:45:36.770285 , 444
2015-10-28 16:45:36.786116 , 499
2015-10-28 16:45:36.786169 , 526
2015-10-28 16:45:36.786217 , 541
2015-10-28 16:45:36.802160 , 546
2015-10-28 16:45:36.802248 , 549
2015-10-28 16:45:36.802312 , 551
2015-10-28 16:45:36.818094 , 554
2015-10-28 16:45:36.818147 , 556
2015-10-28 16:45:36.818183 , 556
2015-10-28 16:45:36.834087 , 557
2015-10-28 16:45:36.834150 , 560
2015-10-28 16:45:36.834194 , 562
2015-10-28 16:45:36.850075 , 561
2015-10-28 16:45:36.850130 , 561
2015-10-28 16:45:36.850167 , 563
2015-10-28 16:45:36.866138 , 565
2015-10-28 16:45:36.866228 , 564
2015-10-28 16:45:36.866292 , 563
2015-10-28 16:45:36.882402 , 565
2015-10-28 16:45:36.882493 , 566
2015-10-28 16:45:36.882558 , 566
2015-10-28 16:45:36.898330 , 568
2015-10-28 16:45:36.898433 , 570
2015-10-28 16:45:36.898507 , 571
2015-10-28 16:45:36.914362 , 570
2015-10-28 16:45:36.914455 , 571
2015-10-28 16:45:36.914520 , 575
2015-10-28 16:45:36.930353 , 575
2015-10-28 16:45:36.930481 , 575
2015-10-28 16:45:36.930547 , 579
2015-10-28 16:45:36.946215 , 584
2015-10-28 16:45:36.946323 , 589
2015-10-28 16:45:36.946389 , 595
2015-10-28 16:45:36.962171 , 602
2015-10-28 16:45:36.962278 , 609
2015-10-28 16:45:36.962343 , 614
2015-10-28 16:45:36.978322 , 619
2015-10-28 16:45:36.978460 , 626
2015-10-28 16:45:36.978527 , 629
2015-10-28 16:45:36.994137 , 629
2015-10-28 16:45:36.994242 , 628
2015-10-28 16:45:36.994307 , 628
2015-10-28 16:45:36.994369 , 624
2015-10-28 16:45:37.010388 , 617
2015-10-28 16:45:37.010478 , 606
2015-10-28 16:45:37.010542 , 591
2015-10-28 16:45:37.026110 , 573
2015-10-28 16:45:37.026198 , 554
2015-10-28 16:45:37.026262 , 536
2015-10-28 16:45:37.042256 , 520
2015-10-28 16:45:37.042344 , 507
2015-10-28 16:45:37.042408 , 496
2015-10-28 16:45:37.058332 , 488
2015-10-28 16:45:37.058424 , 482
2015-10-28 16:45:37.058489 , 477
2015-10-28 16:45:37.074257 , 472
2015-10-28 16:45:37.074347 , 469
2015-10-28 16:45:37.074411 , 467
2015-10-28 16:45:37.090365 , 465
2015-10-28 16:45:37.090457 , 463
2015-10-28 16:45:37.090521 , 464
2015-10-28 16:45:37.106155 , 465
2015-10-28 16:45:37.106245 , 465
2015-10-28 16:45:37.106308 , 469
2015-10-28 16:45:37.122297 , 473
2015-10-28 16:45:37.122421 , 473
2015-10-28 16:45:37.122486 , 473
2015-10-28 16:45:37.138257 , 475
2015-10-28 16:45:37.138378 , 478
2015-10-28 16:45:37.138442 , 480
2015-10-28 16:45:37.154182 , 480
2015-10-28 16:45:37.154273 , 479
2015-10-28 16:45:37.154339 , 480
2015-10-28 16:45:37.170083 , 479
2015-10-28 16:45:37.170208 , 478
2015-10-28 16:45:37.170302 , 477
2015-10-28 16:45:37.186300 , 477
2015-10-28 16:45:37.186400 , 477
2015-10-28 16:45:37.186466 , 476
2015-10-28 16:45:37.202138 , 475
2015-10-28 16:45:37.202245 , 475
2015-10-28 16:45:37.202312 , 473
2015-10-28 16:45:37.218761 , 471
2015-10-28 16:45:37.218880 , 471
2015-10-28 16:45:37.218972 , 472
2015-10-28 16:45:37.233976 , 471
2015-10-28 16:45:37.234155 , 470
2015-10-28 16:45:37.234271 , 469
2015-10-28 16:45:37.234366 , 469
2015-10-28 16:45:37.250044 , 468
2015-10-28 16:45:37.250141 , 468
2015-10-28 16:45:37.250206 , 467
2015-10-28 16:45:37.265948 , 468
2015-10-28 16:45:37.266022 , 467
2015-10-28 16:45:37.266077 , 465
2015-10-28 16:45:37.282247 , 466
2015-10-28 16:45:37.282334 , 466
2015-10-28 16:45:37.282542 , 466
2015-10-28 16:45:37.298166 , 465
2015-10-28 16:45:37.298258 , 465
2015-10-28 16:45:37.298324 , 465
2015-10-28 16:45:37.314220 , 464
2015-10-28 16:45:37.314309 , 464
2015-10-28 16:45:37.314374 , 465
2015-10-28 16:45:37.330095 , 466
2015-10-28 16:45:37.330185 , 466
2015-10-28 16:45:37.330249 , 467
2015-10-28 16:45:37.346086 , 465
2015-10-28 16:45:37.346174 , 462
2015-10-28 16:45:37.346239 , 462
2015-10-28 16:45:37.362015 , 463
2015-10-28 16:45:37.362110 , 465
2015-10-28 16:45:37.362175 , 468
2015-10-28 16:45:37.378078 , 467
2015-10-28 16:45:37.378167 , 464
2015-10-28 16:45:37.378231 , 469
2015-10-28 16:45:37.393943 , 475
2015-10-28 16:45:37.394034 , 476
2015-10-28 16:45:37.394098 , 475
2015-10-28 16:45:37.410068 , 472
2015-10-28 16:45:37.410162 , 465
2015-10-28 16:45:37.410226 , 461
2015-10-28 16:45:37.426183 , 462
2015-10-28 16:45:37.426307 , 462
2015-10-28 16:45:37.426372 , 462
2015-10-28 16:45:37.442087 , 464
2015-10-28 16:45:37.442194 , 465
2015-10-28 16:45:37.442260 , 464
2015-10-28 16:45:37.457899 , 463
2015-10-28 16:45:37.458005 , 464
2015-10-28 16:45:37.458070 , 467
2015-10-28 16:45:37.473875 , 469
2015-10-28 16:45:37.473980 , 461
2015-10-28 16:45:37.474046 , 430
2015-10-28 16:45:37.474108 , 380
2015-10-28 16:45:37.490100 , 369
2015-10-28 16:45:37.490190 , 373
2015-10-28 16:45:37.490254 , 369
2015-10-28 16:45:37.506041 , 367
2015-10-28 16:45:37.506129 , 332
2015-10-28 16:45:37.506192 , 312
2015-10-28 16:45:37.522016 , 383
2015-10-28 16:45:37.522105 , 456
2015-10-28 16:45:37.522179 , 493
2015-10-28 16:45:37.537908 , 500
2015-10-28 16:45:37.537997 , 499
2015-10-28 16:45:37.538062 , 500
2015-10-28 16:45:37.554131 , 501
2015-10-28 16:45:37.554236 , 504
2015-10-28 16:45:37.554309 , 508
2015-10-28 16:45:37.569865 , 510
2015-10-28 16:45:37.569953 , 511
2015-10-28 16:45:37.570017 , 513
2015-10-28 16:45:37.586077 , 515
2015-10-28 16:45:37.586168 , 515
2015-10-28 16:45:37.586232 , 515
2015-10-28 16:45:37.602114 , 517
2015-10-28 16:45:37.602231 , 520
2015-10-28 16:45:37.602295 , 521
2015-10-28 16:45:37.617902 , 521
2015-10-28 16:45:37.617992 , 523
2015-10-28 16:45:37.618057 , 525
2015-10-28 16:45:37.633839 , 524
2015-10-28 16:45:37.633930 , 526
2015-10-28 16:45:37.633995 , 527
2015-10-28 16:45:37.650066 , 529
2015-10-28 16:45:37.650171 , 531
2015-10-28 16:45:37.650237 , 533
2015-10-28 16:45:37.665853 , 535
2015-10-28 16:45:37.665945 , 537
2015-10-28 16:45:37.666011 , 539
2015-10-28 16:45:37.681849 , 543
2015-10-28 16:45:37.682019 , 550
2015-10-28 16:45:37.682103 , 555
2015-10-28 16:45:37.698018 , 560
2015-10-28 16:45:37.698204 , 566
2015-10-28 16:45:37.698271 , 574
2015-10-28 16:45:37.713957 , 579
2015-10-28 16:45:37.714116 , 584
2015-10-28 16:45:37.714181 , 589
2015-10-28 16:45:37.714243 , 594
2015-10-28 16:45:37.730136 , 596
2015-10-28 16:45:37.730229 , 597
2015-10-28 16:45:37.730294 , 598
2015-10-28 16:45:37.746021 , 597
2015-10-28 16:45:37.746112 , 593
2015-10-28 16:45:37.746177 , 586
2015-10-28 16:45:37.761990 , 576
2015-10-28 16:45:37.762077 , 563
2015-10-28 16:45:37.762142 , 546
2015-10-28 16:45:37.778020 , 528
2015-10-28 16:45:37.778111 , 511
2015-10-28 16:45:37.778176 , 496
2015-10-28 16:45:37.793836 , 482
2015-10-28 16:45:37.793982 , 473
2015-10-28 16:45:37.794154 , 465
2015-10-28 16:45:37.810075 , 460
2015-10-28 16:45:37.810164 , 456
2015-10-28 16:45:37.810227 , 454
2015-10-28 16:45:37.826114 , 454
2015-10-28 16:45:37.826221 , 453
2015-10-28 16:45:37.826287 , 452
2015-10-28 16:45:37.842095 , 453
2015-10-28 16:45:37.842247 , 456
2015-10-28 16:45:37.842374 , 455
2015-10-28 16:45:37.858050 , 455
2015-10-28 16:45:37.858141 , 458
2015-10-28 16:45:37.858205 , 461
2015-10-28 16:45:37.873939 , 462
2015-10-28 16:45:37.874031 , 462
2015-10-28 16:45:37.874096 , 465
2015-10-28 16:45:37.889745 , 466
2015-10-28 16:45:37.889837 , 466
2015-10-28 16:45:37.889928 , 467
2015-10-28 16:45:37.905695 , 468
2015-10-28 16:45:37.905760 , 469
2015-10-28 16:45:37.905805 , 468
2015-10-28 16:45:37.921995 , 469
2015-10-28 16:45:37.922142 , 471
2015-10-28 16:45:37.922209 , 473
2015-10-28 16:45:37.938028 , 472
2015-10-28 16:45:37.938188 , 472
2015-10-28 16:45:37.938254 , 472
2015-10-28 16:45:37.953868 , 472
2015-10-28 16:45:37.953974 , 471
2015-10-28 16:45:37.954044 , 472
2015-10-28 16:45:37.970009 , 473
2015-10-28 16:45:37.970165 , 472
2015-10-28 16:45:37.970231 , 470
2015-10-28 16:45:37.970292 , 471
2015-10-28 16:45:37.985978 , 471
2015-10-28 16:45:37.986066 , 470
2015-10-28 16:45:37.986130 , 470
2015-10-28 16:45:38.001820 , 472
2015-10-28 16:45:38.002082 , 473
2015-10-28 16:45:38.002155 , 472
2015-10-28 16:45:38.018069 , 472
2015-10-28 16:45:38.018261 , 473
2015-10-28 16:45:38.018459 , 473
2015-10-28 16:45:38.033813 , 472
2015-10-28 16:45:38.033870 , 474
2015-10-28 16:45:38.033907 , 474
2015-10-28 16:45:38.049906 , 474
2015-10-28 16:45:38.049996 , 473
2015-10-28 16:45:38.050060 , 475
2015-10-28 16:45:38.065809 , 475
2015-10-28 16:45:38.065871 , 475
2015-10-28 16:45:38.065915 , 475
2015-10-28 16:45:38.081795 , 476
2015-10-28 16:45:38.081890 , 478
2015-10-28 16:45:38.081955 , 477
2015-10-28 16:45:38.097842 , 477
2015-10-28 16:45:38.097932 , 478
2015-10-28 16:45:38.097997 , 479
2015-10-28 16:45:38.113796 , 479
2015-10-28 16:45:38.113944 , 479
2015-10-28 16:45:38.114061 , 482
2015-10-28 16:45:38.129713 , 483
2015-10-28 16:45:38.129770 , 480
2015-10-28 16:45:38.129806 , 478
2015-10-28 16:45:38.145772 , 481
2015-10-28 16:45:38.145909 , 484
2015-10-28 16:45:38.146072 , 486
2015-10-28 16:45:38.161825 , 487
2015-10-28 16:45:38.162048 , 486
2015-10-28 16:45:38.162117 , 486
2015-10-28 16:45:38.177703 , 493
2015-10-28 16:45:38.178189 , 496
2015-10-28 16:45:38.178335 , 495
2015-10-28 16:45:38.193653 , 492
2015-10-28 16:45:38.193763 , 488
2015-10-28 16:45:38.193833 , 484
2015-10-28 16:45:38.209747 , 484
2015-10-28 16:45:38.210172 , 483
2015-10-28 16:45:38.219402 , 484
2015-10-28 16:45:38.228533 , 485
2015-10-28 16:45:38.228629 , 487
2015-10-28 16:45:38.228698 , 486
2015-10-28 16:45:38.228770 , 486
2015-10-28 16:45:38.241987 , 487
2015-10-28 16:45:38.242430 , 488
2015-10-28 16:45:38.242520 , 489
2015-10-28 16:45:38.257758 , 487
2015-10-28 16:45:38.257882 , 476
2015-10-28 16:45:38.257968 , 435
2015-10-28 16:45:38.273644 , 407
2015-10-28 16:45:38.273698 , 412
2015-10-28 16:45:38.273734 , 410
2015-10-28 16:45:38.289669 , 409
2015-10-28 16:45:38.289730 , 390
2015-10-28 16:45:38.289767 , 335
2015-10-28 16:45:38.306459 , 353
2015-10-28 16:45:38.306547 , 432
2015-10-28 16:45:38.306613 , 492
2015-10-28 16:45:38.321628 , 516
2015-10-28 16:45:38.321682 , 520
2015-10-28 16:45:38.321718 , 518
2015-10-28 16:45:38.337602 , 518
2015-10-28 16:45:38.337655 , 522
2015-10-28 16:45:38.337692 , 523
2015-10-28 16:45:38.353688 , 524
2015-10-28 16:45:38.353759 , 527
2015-10-28 16:45:38.353810 , 529
2015-10-28 16:45:38.369627 , 531
2015-10-28 16:45:38.369762 , 530
2015-10-28 16:45:38.369827 , 533
2015-10-28 16:45:38.385611 , 535
2015-10-28 16:45:38.385694 , 536
2015-10-28 16:45:38.385757 , 537
2015-10-28 16:45:38.401666 , 539
2015-10-28 16:45:38.401754 , 539
2015-10-28 16:45:38.401818 , 540
2015-10-28 16:45:38.417591 , 539
2015-10-28 16:45:38.417667 , 542
2015-10-28 16:45:38.417705 , 543
2015-10-28 16:45:38.433595 , 545
2015-10-28 16:45:38.433658 , 546
2015-10-28 16:45:38.433695 , 548
2015-10-28 16:45:38.449597 , 552
2015-10-28 16:45:38.449661 , 554
2015-10-28 16:45:38.449697 , 556
2015-10-28 16:45:38.449733 , 559
2015-10-28 16:45:38.465622 , 563
2015-10-28 16:45:38.465677 , 568
2015-10-28 16:45:38.465716 , 574
2015-10-28 16:45:38.481598 , 581
2015-10-28 16:45:38.481694 , 586
2015-10-28 16:45:38.481762 , 590
2015-10-28 16:45:38.497628 , 595
2015-10-28 16:45:38.497680 , 602
2015-10-28 16:45:38.497717 , 608
2015-10-28 16:45:38.513567 , 612
2015-10-28 16:45:38.513620 , 614
2015-10-28 16:45:38.513657 , 616
2015-10-28 16:45:38.529563 , 616
2015-10-28 16:45:38.529616 , 613
2015-10-28 16:45:38.529652 , 609
2015-10-28 16:45:38.545743 , 602
2015-10-28 16:45:38.545891 , 590
2015-10-28 16:45:38.546083 , 574
2015-10-28 16:45:38.561530 , 558
2015-10-28 16:45:38.561615 , 541
2015-10-28 16:45:38.561679 , 522
2015-10-28 16:45:38.577563 , 507
2015-10-28 16:45:38.577668 , 496
2015-10-28 16:45:38.577734 , 487
2015-10-28 16:45:38.593782 , 479
2015-10-28 16:45:38.594045 , 475
2015-10-28 16:45:38.594129 , 473
2015-10-28 16:45:38.609874 , 473
2015-10-28 16:45:38.610118 , 471
2015-10-28 16:45:38.610193 , 469
2015-10-28 16:45:38.625984 , 471
2015-10-28 16:45:38.626145 , 472
2015-10-28 16:45:38.626215 , 473
2015-10-28 16:45:38.641606 , 475
2015-10-28 16:45:38.642080 , 476
2015-10-28 16:45:38.642172 , 476
2015-10-28 16:45:38.657535 , 480
2015-10-28 16:45:38.657679 , 484
2015-10-28 16:45:38.657786 , 487
2015-10-28 16:45:38.673510 , 488
2015-10-28 16:45:38.673670 , 488
2015-10-28 16:45:38.673780 , 490
2015-10-28 16:45:38.689562 , 491
2015-10-28 16:45:38.689802 , 492
2015-10-28 16:45:38.689987 , 491
2015-10-28 16:45:38.690057 , 494
2015-10-28 16:45:38.705781 , 497
2015-10-28 16:45:38.705995 , 496
2015-10-28 16:45:38.706187 , 496
2015-10-28 16:45:38.721759 , 498
2015-10-28 16:45:38.721848 , 499
2015-10-28 16:45:38.721913 , 499
2015-10-28 16:45:38.737604 , 499
2015-10-28 16:45:38.737796 , 501
2015-10-28 16:45:38.737875 , 500
2015-10-28 16:45:38.753779 , 499
2015-10-28 16:45:38.754002 , 499
2015-10-28 16:45:38.754145 , 502
2015-10-28 16:45:38.769733 , 503
2015-10-28 16:45:38.769951 , 502
2015-10-28 16:45:38.770027 , 501
2015-10-28 16:45:38.785677 , 500
2015-10-28 16:45:38.785832 , 499
2015-10-28 16:45:38.785906 , 500
2015-10-28 16:45:38.801708 , 501
2015-10-28 16:45:38.801865 , 501
2015-10-28 16:45:38.801990 , 501
2015-10-28 16:45:38.817491 , 501
2015-10-28 16:45:38.817580 , 502
2015-10-28 16:45:38.817645 , 504
2015-10-28 16:45:38.833797 , 505
2015-10-28 16:45:38.833915 , 505
2015-10-28 16:45:38.833998 , 507
2015-10-28 16:45:38.849687 , 508
2015-10-28 16:45:38.849777 , 508
2015-10-28 16:45:38.849842 , 509
2015-10-28 16:45:38.865449 , 511
2015-10-28 16:45:38.865603 , 512
2015-10-28 16:45:38.865697 , 512
2015-10-28 16:45:38.881804 , 513
2015-10-28 16:45:38.881899 , 514
2015-10-28 16:45:38.881964 , 514
2015-10-28 16:45:38.897694 , 514
2015-10-28 16:45:38.897813 , 516
2015-10-28 16:45:38.897878 , 517
2015-10-28 16:45:38.913470 , 516
2015-10-28 16:45:38.913576 , 516
2015-10-28 16:45:38.913642 , 517
2015-10-28 16:45:38.929490 , 517
2015-10-28 16:45:38.929598 , 520
2015-10-28 16:45:38.929663 , 522
2015-10-28 16:45:38.945538 , 524
2015-10-28 16:45:38.945645 , 526
2015-10-28 16:45:38.945710 , 526
2015-10-28 16:45:38.945771 , 528
2015-10-28 16:45:38.961593 , 532
2015-10-28 16:45:38.961682 , 532
2015-10-28 16:45:38.961867 , 529
2015-10-28 16:45:38.977502 , 533
2015-10-28 16:45:38.977592 , 537
2015-10-28 16:45:38.977667 , 533
2015-10-28 16:45:38.993699 , 526
2015-10-28 16:45:38.993870 , 521
2015-10-28 16:45:38.993940 , 521
2015-10-28 16:45:39.009640 , 522
2015-10-28 16:45:39.009730 , 522
2015-10-28 16:45:39.009904 , 523
2015-10-28 16:45:39.025652 , 523
2015-10-28 16:45:39.025853 , 522
2015-10-28 16:45:39.025932 , 522
2015-10-28 16:45:39.041529 , 522
2015-10-28 16:45:39.041619 , 522
2015-10-28 16:45:39.041693 , 521
2015-10-28 16:45:39.057568 , 523
2015-10-28 16:45:39.057659 , 521
2015-10-28 16:45:39.057723 , 508
2015-10-28 16:45:39.073506 , 486
2015-10-28 16:45:39.073595 , 483
2015-10-28 16:45:39.073668 , 482
2015-10-28 16:45:39.089575 , 474
2015-10-28 16:45:39.089752 , 463
2015-10-28 16:45:39.089927 , 422
2015-10-28 16:45:39.105761 , 372
2015-10-28 16:45:39.105903 , 406
2015-10-28 16:45:39.106004 , 477
2015-10-28 16:45:39.121469 , 518
2015-10-28 16:45:39.121690 , 539
2015-10-28 16:45:39.121758 , 545
2015-10-28 16:45:39.137437 , 546
2015-10-28 16:45:39.137532 , 548
2015-10-28 16:45:39.137596 , 551
2015-10-28 16:45:39.153444 , 552
2015-10-28 16:45:39.153666 , 555
2015-10-28 16:45:39.153890 , 558
2015-10-28 16:45:39.169465 , 559
2015-10-28 16:45:39.169573 , 559
2015-10-28 16:45:39.169638 , 560
2015-10-28 16:45:39.185293 , 560
2015-10-28 16:45:39.185373 , 561
2015-10-28 16:45:39.185420 , 559
2015-10-28 16:45:39.185464 , 561
2015-10-28 16:45:39.201467 , 565
2015-10-28 16:45:39.201556 , 564
2015-10-28 16:45:39.201620 , 564
2015-10-28 16:45:39.217708 , 564
2015-10-28 16:45:39.217946 , 567
2015-10-28 16:45:39.218210 , 569
2015-10-28 16:45:39.233528 , 569
2015-10-28 16:45:39.233616 , 572
2015-10-28 16:45:39.233839 , 575
2015-10-28 16:45:39.249448 , 577
2015-10-28 16:45:39.249537 , 579
2015-10-28 16:45:39.249602 , 582
2015-10-28 16:45:39.265697 , 585
2015-10-28 16:45:39.265807 , 589
2015-10-28 16:45:39.265873 , 592
2015-10-28 16:45:39.281621 , 598
2015-10-28 16:45:39.281712 , 602
2015-10-28 16:45:39.281775 , 606
2015-10-28 16:45:39.297443 , 613
2015-10-28 16:45:39.297540 , 620
2015-10-28 16:45:39.297605 , 625
2015-10-28 16:45:39.313497 , 628
2015-10-28 16:45:39.313587 , 631
2015-10-28 16:45:39.313652 , 633
2015-10-28 16:45:39.329469 , 634
2015-10-28 16:45:39.329559 , 632
2015-10-28 16:45:39.329624 , 631
2015-10-28 16:45:39.345581 , 626
2015-10-28 16:45:39.345711 , 615
2015-10-28 16:45:39.345776 , 601
2015-10-28 16:45:39.361318 , 587
2015-10-28 16:45:39.361410 , 571
2015-10-28 16:45:39.361475 , 553
2015-10-28 16:45:39.377263 , 535
2015-10-28 16:45:39.377317 , 521
2015-10-28 16:45:39.377353 , 509
2015-10-28 16:45:39.393267 , 499
2015-10-28 16:45:39.393374 , 492
2015-10-28 16:45:39.393448 , 489
2015-10-28 16:45:39.409235 , 484
2015-10-28 16:45:39.409390 , 479
2015-10-28 16:45:39.409466 , 479
2015-10-28 16:45:39.425285 , 480
2015-10-28 16:45:39.425472 , 480
2015-10-28 16:45:39.425604 , 478
2015-10-28 16:45:39.425722 , 479
2015-10-28 16:45:39.441335 , 482
2015-10-28 16:45:39.441427 , 485
2015-10-28 16:45:39.441500 , 487
2015-10-28 16:45:39.457265 , 489
2015-10-28 16:45:39.457342 , 492
2015-10-28 16:45:39.457396 , 494
2015-10-28 16:45:39.473347 , 495
2015-10-28 16:45:39.473421 , 498
2015-10-28 16:45:39.473482 , 502
2015-10-28 16:45:39.489433 , 505
2015-10-28 16:45:39.489523 , 506
2015-10-28 16:45:39.489586 , 509
2015-10-28 16:45:39.505379 , 512
2015-10-28 16:45:39.505469 , 511
2015-10-28 16:45:39.505534 , 511
2015-10-28 16:45:39.521235 , 513
2015-10-28 16:45:39.521297 , 515
2015-10-28 16:45:39.521341 , 517
2015-10-28 16:45:39.537390 , 517
2015-10-28 16:45:39.537479 , 520
2015-10-28 16:45:39.537542 , 519
2015-10-28 16:45:39.553410 , 518
2015-10-28 16:45:39.553498 , 518
2015-10-28 16:45:39.553563 , 519
2015-10-28 16:45:39.569290 , 520
2015-10-28 16:45:39.569442 , 520
2015-10-28 16:45:39.569549 , 519
2015-10-28 16:45:39.585596 , 518
2015-10-28 16:45:39.585688 , 518
2015-10-28 16:45:39.585752 , 516
2015-10-28 16:45:39.601563 , 515
2015-10-28 16:45:39.601674 , 516
2015-10-28 16:45:39.601769 , 515
2015-10-28 16:45:39.617192 , 514
2015-10-28 16:45:39.617290 , 515
2015-10-28 16:45:39.617338 , 516
2015-10-28 16:45:39.633128 , 516
2015-10-28 16:45:39.633302 , 517
2015-10-28 16:45:39.633352 , 516
2015-10-28 16:45:39.649167 , 516
2015-10-28 16:45:39.649232 , 516
2015-10-28 16:45:39.649335 , 515
2015-10-28 16:45:39.665439 , 515
2015-10-28 16:45:39.665545 , 516
2015-10-28 16:45:39.665610 , 514
2015-10-28 16:45:39.665709 , 513
2015-10-28 16:45:39.681617 , 515
2015-10-28 16:45:39.681825 , 516
2015-10-28 16:45:39.682057 , 517
2015-10-28 16:45:39.697402 , 521
2015-10-28 16:45:39.697493 , 523
2015-10-28 16:45:39.697557 , 522
2015-10-28 16:45:39.713568 , 523
2015-10-28 16:45:39.713767 , 529
2015-10-28 16:45:39.713963 , 529
2015-10-28 16:45:39.729253 , 527
2015-10-28 16:45:39.729675 , 526
2015-10-28 16:45:39.730131 , 529
2015-10-28 16:45:39.745379 , 528
2015-10-28 16:45:39.745469 , 522
2015-10-28 16:45:39.745566 , 517
2015-10-28 16:45:39.761211 , 515
2015-10-28 16:45:39.761326 , 514
2015-10-28 16:45:39.761423 , 511
2015-10-28 16:45:39.777173 , 508
2015-10-28 16:45:39.777319 , 509
2015-10-28 16:45:39.777367 , 509
2015-10-28 16:45:39.793210 , 510
2015-10-28 16:45:39.793381 , 511
2015-10-28 16:45:39.793452 , 512
2015-10-28 16:45:39.809113 , 511
2015-10-28 16:45:39.809227 , 515
2015-10-28 16:45:39.809300 , 515
2015-10-28 16:45:39.825450 , 510
2015-10-28 16:45:39.825608 , 492
2015-10-28 16:45:39.825776 , 487
2015-10-28 16:45:39.841139 , 479
2015-10-28 16:45:39.841253 , 469
2015-10-28 16:45:39.841341 , 455
2015-10-28 16:45:39.857135 , 413
2015-10-28 16:45:39.857227 , 363
2015-10-28 16:45:39.857369 , 391
2015-10-28 16:45:39.873194 , 463
2015-10-28 16:45:39.873355 , 504
2015-10-28 16:45:39.873449 , 526
2015-10-28 16:45:39.889115 , 536
2015-10-28 16:45:39.889270 , 539
2015-10-28 16:45:39.889322 , 540
2015-10-28 16:45:39.905121 , 543
2015-10-28 16:45:39.905355 , 546
2015-10-28 16:45:39.905503 , 547
2015-10-28 16:45:39.921076 , 548
2015-10-28 16:45:39.921252 , 550
2015-10-28 16:45:39.921327 , 550
2015-10-28 16:45:39.921395 , 549
2015-10-28 16:45:39.937458 , 551
2015-10-28 16:45:39.937547 , 554
2015-10-28 16:45:39.937612 , 554
2015-10-28 16:45:39.953254 , 554
2015-10-28 16:45:39.953345 , 556
2015-10-28 16:45:39.953410 , 557
2015-10-28 16:45:39.969231 , 556
2015-10-28 16:45:39.969319 , 555
2015-10-28 16:45:39.969384 , 556
2015-10-28 16:45:39.985420 , 559
2015-10-28 16:45:39.985510 , 560
2015-10-28 16:45:39.985573 , 562
2015-10-28 16:45:40.001473 , 563
2015-10-28 16:45:40.001562 , 564
2015-10-28 16:45:40.001645 , 565
2015-10-28 16:45:40.017473 , 566
2015-10-28 16:45:40.017590 , 569
2015-10-28 16:45:40.017654 , 573
2015-10-28 16:45:40.033412 , 575
2015-10-28 16:45:40.033503 , 579
2015-10-28 16:45:40.033568 , 585
2015-10-28 16:45:40.049366 , 592
2015-10-28 16:45:40.049455 , 597
2015-10-28 16:45:40.049535 , 602
2015-10-28 16:45:40.065307 , 608
2015-10-28 16:45:40.065396 , 614
2015-10-28 16:45:40.065459 , 616
2015-10-28 16:45:40.081320 , 618
2015-10-28 16:45:40.081414 , 620
2015-10-28 16:45:40.081479 , 617
2015-10-28 16:45:40.097324 , 613
2015-10-28 16:45:40.097420 , 607
2015-10-28 16:45:40.097484 , 598
2015-10-28 16:45:40.113385 , 583
2015-10-28 16:45:40.113482 , 565
2015-10-28 16:45:40.113547 , 546
2015-10-28 16:45:40.129164 , 528
2015-10-28 16:45:40.129270 , 510
2015-10-28 16:45:40.129334 , 497
2015-10-28 16:45:40.145140 , 486
2015-10-28 16:45:40.145247 , 478
2015-10-28 16:45:40.145313 , 470
2015-10-28 16:45:40.161182 , 464
2015-10-28 16:45:40.161290 , 458
2015-10-28 16:45:40.161355 , 455
2015-10-28 16:45:40.161416 , 452
2015-10-28 16:45:40.177189 , 452
2015-10-28 16:45:40.177251 , 453
2015-10-28 16:45:40.177296 , 453
2015-10-28 16:45:40.193367 , 452
2015-10-28 16:45:40.193457 , 452
2015-10-28 16:45:40.193533 , 454
2015-10-28 16:45:40.209351 , 455
2015-10-28 16:45:40.209440 , 457
2015-10-28 16:45:40.209504 , 459
2015-10-28 16:45:40.225334 , 461
2015-10-28 16:45:40.225423 , 462
2015-10-28 16:45:40.225487 , 463
2015-10-28 16:45:40.241189 , 464
2015-10-28 16:45:40.241318 , 466
2015-10-28 16:45:40.241383 , 465
2015-10-28 16:45:40.257384 , 464
2015-10-28 16:45:40.257474 , 464
2015-10-28 16:45:40.257538 , 463
2015-10-28 16:45:40.273307 , 462
2015-10-28 16:45:40.273397 , 462
2015-10-28 16:45:40.273461 , 465
2015-10-28 16:45:40.289269 , 463
2015-10-28 16:45:40.289361 , 463
2015-10-28 16:45:40.289425 , 464
2015-10-28 16:45:40.305100 , 465
2015-10-28 16:45:40.305190 , 465
2015-10-28 16:45:40.305255 , 461
2015-10-28 16:45:40.321241 , 459
2015-10-28 16:45:40.321334 , 459
2015-10-28 16:45:40.321400 , 459
2015-10-28 16:45:40.337275 , 458
2015-10-28 16:45:40.337369 , 458
2015-10-28 16:45:40.337433 , 459
2015-10-28 16:45:40.353382 , 458
2015-10-28 16:45:40.353478 , 457
2015-10-28 16:45:40.353544 , 458
2015-10-28 16:45:40.369282 , 458
2015-10-28 16:45:40.369407 , 457
2015-10-28 16:45:40.369475 , 457
2015-10-28 16:45:40.385300 , 459
2015-10-28 16:45:40.385446 , 460
2015-10-28 16:45:40.385512 , 459
2015-10-28 16:45:40.401005 , 457
2015-10-28 16:45:40.401081 , 457
2015-10-28 16:45:40.401126 , 455
2015-10-28 16:45:40.401168 , 454
2015-10-28 16:45:40.417280 , 454
2015-10-28 16:45:40.417368 , 456
2015-10-28 16:45:40.417432 , 456
2015-10-28 16:45:40.433340 , 456
2015-10-28 16:45:40.433486 , 457
2015-10-28 16:45:40.433551 , 458
2015-10-28 16:45:40.449420 , 459
2015-10-28 16:45:40.449510 , 458
2015-10-28 16:45:40.449575 , 458
2015-10-28 16:45:40.465215 , 462
2015-10-28 16:45:40.465303 , 467
2015-10-28 16:45:40.465368 , 470
2015-10-28 16:45:40.481330 , 470
2015-10-28 16:45:40.481420 , 471
2015-10-28 16:45:40.481484 , 473
2015-10-28 16:45:40.497061 , 477
2015-10-28 16:45:40.497149 , 475
2015-10-28 16:45:40.497213 , 472
2015-10-28 16:45:40.513220 , 475
2015-10-28 16:45:40.513311 , 479
2015-10-28 16:45:40.513375 , 478
2015-10-28 16:45:40.529240 , 472
2015-10-28 16:45:40.529331 , 465
2015-10-28 16:45:40.529396 , 463
2015-10-28 16:45:40.545200 , 463
2015-10-28 16:45:40.545290 , 463
2015-10-28 16:45:40.545354 , 465
2015-10-28 16:45:40.561173 , 466
2015-10-28 16:45:40.561295 , 467
2015-10-28 16:45:40.561360 , 468
2015-10-28 16:45:40.577139 , 467
2015-10-28 16:45:40.577230 , 468
2015-10-28 16:45:40.577294 , 471
2015-10-28 16:45:40.593280 , 472
2015-10-28 16:45:40.593412 , 466
2015-10-28 16:45:40.593477 , 440
2015-10-28 16:45:40.609006 , 394
2015-10-28 16:45:40.609203 , 385
2015-10-28 16:45:40.609336 , 390
2015-10-28 16:45:40.625125 , 385
2015-10-28 16:45:40.625232 , 383
2015-10-28 16:45:40.625298 , 347
2015-10-28 16:45:40.641207 , 318
2015-10-28 16:45:40.641349 , 383
2015-10-28 16:45:40.641414 , 459
2015-10-28 16:45:40.657093 , 498
2015-10-28 16:45:40.657202 , 507
2015-10-28 16:45:40.657267 , 507
2015-10-28 16:45:40.657329 , 507
2015-10-28 16:45:40.673100 , 509
2015-10-28 16:45:40.673190 , 512
2015-10-28 16:45:40.673253 , 515
2015-10-28 16:45:40.689022 , 516
2015-10-28 16:45:40.689111 , 517
2015-10-28 16:45:40.689175 , 520
2015-10-28 16:45:40.705067 , 523
2015-10-28 16:45:40.705253 , 525
2015-10-28 16:45:40.705341 , 526
2015-10-28 16:45:40.721145 , 528
2015-10-28 16:45:40.721236 , 528
2015-10-28 16:45:40.721300 , 529
2015-10-28 16:45:40.737047 , 530
2015-10-28 16:45:40.737148 , 531
2015-10-28 16:45:40.737213 , 534
2015-10-28 16:45:40.753140 , 534
2015-10-28 16:45:40.753229 , 535
2015-10-28 16:45:40.753292 , 538
2015-10-28 16:45:40.769219 , 541
2015-10-28 16:45:40.769342 , 542
2015-10-28 16:45:40.769406 , 543
2015-10-28 16:45:40.785194 , 546
2015-10-28 16:45:40.785298 , 548
2015-10-28 16:45:40.785363 , 551
2015-10-28 16:45:40.801091 , 554
2015-10-28 16:45:40.801181 , 560
2015-10-28 16:45:40.801246 , 564
2015-10-28 16:45:40.817063 , 570
2015-10-28 16:45:40.817155 , 577
2015-10-28 16:45:40.817220 , 583
2015-10-28 16:45:40.833252 , 589
2015-10-28 16:45:40.833475 , 595
2015-10-28 16:45:40.833556 , 603
2015-10-28 16:45:40.849161 , 609
2015-10-28 16:45:40.849287 , 611
2015-10-28 16:45:40.849352 , 613
2015-10-28 16:45:40.865134 , 614
2015-10-28 16:45:40.865295 , 613
2015-10-28 16:45:40.865361 , 608
2015-10-28 16:45:40.881026 , 601
2015-10-28 16:45:40.881132 , 592
2015-10-28 16:45:40.881197 , 580
2015-10-28 16:45:40.897169 , 562
2015-10-28 16:45:40.897277 , 544
2015-10-28 16:45:40.897344 , 528
2015-10-28 16:45:40.897406 , 512
2015-10-28 16:45:40.913051 , 499
2015-10-28 16:45:40.913220 , 488
2015-10-28 16:45:40.913393 , 481
2015-10-28 16:45:40.928912 , 474
2015-10-28 16:45:40.929015 , 469
2015-10-28 16:45:40.929135 , 467
2015-10-28 16:45:40.945257 , 465
2015-10-28 16:45:40.945361 , 463
2015-10-28 16:45:40.945425 , 463
2015-10-28 16:45:40.960998 , 464
2015-10-28 16:45:40.961087 , 466
2015-10-28 16:45:40.961151 , 467
2015-10-28 16:45:40.977234 , 466
2015-10-28 16:45:40.977325 , 469
2015-10-28 16:45:40.977389 , 471
2015-10-28 16:45:40.993166 , 471
2015-10-28 16:45:40.993257 , 472
2015-10-28 16:45:40.993322 , 476
2015-10-28 16:45:41.009061 , 478
2015-10-28 16:45:41.009151 , 477
2015-10-28 16:45:41.009215 , 478
2015-10-28 16:45:41.025179 , 480
2015-10-28 16:45:41.025303 , 481
2015-10-28 16:45:41.025368 , 482
2015-10-28 16:45:41.041124 , 483
2015-10-28 16:45:41.041216 , 485
2015-10-28 16:45:41.041280 , 484
2015-10-28 16:45:41.057037 , 485
2015-10-28 16:45:41.057130 , 486
2015-10-28 16:45:41.057195 , 487
2015-10-28 16:45:41.073035 , 487
2015-10-28 16:45:41.073159 , 486
2015-10-28 16:45:41.073224 , 486
2015-10-28 16:45:41.088893 , 488
2015-10-28 16:45:41.088986 , 489
2015-10-28 16:45:41.089051 , 488
2015-10-28 16:45:41.105076 , 486
2015-10-28 16:45:41.105238 , 484
2015-10-28 16:45:41.105303 , 481
2015-10-28 16:45:41.120996 , 478
2015-10-28 16:45:41.121103 , 478
2015-10-28 16:45:41.121168 , 479
2015-10-28 16:45:41.136823 , 479
2015-10-28 16:45:41.136931 , 478
2015-10-28 16:45:41.136995 , 479
2015-10-28 16:45:41.137057 , 479
2015-10-28 16:45:41.153018 , 480
2015-10-28 16:45:41.153107 , 481
2015-10-28 16:45:41.153171 , 484
2015-10-28 16:45:41.169036 , 486
2015-10-28 16:45:41.169127 , 486
2015-10-28 16:45:41.169191 , 486
2015-10-28 16:45:41.184959 , 488
2015-10-28 16:45:41.185088 , 490
2015-10-28 16:45:41.185317 , 490
2015-10-28 16:45:41.201021 , 490
2015-10-28 16:45:41.201111 , 494
2015-10-28 16:45:41.201176 , 496
2015-10-28 16:45:41.216828 , 497
2015-10-28 16:45:41.216924 , 499
2015-10-28 16:45:41.216990 , 501
2015-10-28 16:45:41.232939 , 503
2015-10-28 16:45:41.233030 , 503
2015-10-28 16:45:41.233096 , 505
2015-10-28 16:45:41.248968 , 507
2015-10-28 16:45:41.249060 , 509
2015-10-28 16:45:41.249125 , 515
2015-10-28 16:45:41.264929 , 518
2015-10-28 16:45:41.265019 , 517
2015-10-28 16:45:41.265083 , 518
2015-10-28 16:45:41.280798 , 525
2015-10-28 16:45:41.280890 , 526
2015-10-28 16:45:41.280954 , 520
2015-10-28 16:45:41.296921 , 521
2015-10-28 16:45:41.297013 , 524
2015-10-28 16:45:41.297078 , 523
2015-10-28 16:45:41.312782 , 518
2015-10-28 16:45:41.312948 , 513
2015-10-28 16:45:41.313071 , 511
2015-10-28 16:45:41.328725 , 512
2015-10-28 16:45:41.328822 , 511
2015-10-28 16:45:41.328895 , 509
2015-10-28 16:45:41.344694 , 508
2015-10-28 16:45:41.344789 , 509
2015-10-28 16:45:41.344856 , 510
2015-10-28 16:45:41.361029 , 510
2015-10-28 16:45:41.361137 , 509
2015-10-28 16:45:41.361238 , 510
2015-10-28 16:45:41.376671 , 511
2015-10-28 16:45:41.376776 , 505
2015-10-28 16:45:41.376846 , 489
2015-10-28 16:45:41.376918 , 448
2015-10-28 16:45:41.392725 , 436
2015-10-28 16:45:41.392779 , 442
2015-10-28 16:45:41.392815 , 436
2015-10-28 16:45:41.408758 , 434
2015-10-28 16:45:41.408812 , 399
2015-10-28 16:45:41.408848 , 347
2015-10-28 16:45:41.425228 , 393
2015-10-28 16:45:41.425332 , 473
2015-10-28 16:45:41.425416 , 522
2015-10-28 16:45:41.440718 , 538
2015-10-28 16:45:41.440797 , 540
2015-10-28 16:45:41.440853 , 541
2015-10-28 16:45:41.456694 , 542
2015-10-28 16:45:41.456754 , 545
2015-10-28 16:45:41.456791 , 547
2015-10-28 16:45:41.472803 , 548
2015-10-28 16:45:41.473046 , 549
2015-10-28 16:45:41.473115 , 552
2015-10-28 16:45:41.488727 , 555
2015-10-28 16:45:41.488823 , 556
2015-10-28 16:45:41.488957 , 558
2015-10-28 16:45:41.504671 , 561
2015-10-28 16:45:41.504734 , 562
2015-10-28 16:45:41.504780 , 563
2015-10-28 16:45:41.520719 , 563
2015-10-28 16:45:41.520829 , 566
2015-10-28 16:45:41.520879 , 568
2015-10-28 16:45:41.536671 , 569
2015-10-28 16:45:41.536772 , 570
2015-10-28 16:45:41.536846 , 572
2015-10-28 16:45:41.552979 , 574
2015-10-28 16:45:41.553162 , 574
2015-10-28 16:45:41.553394 , 576
2015-10-28 16:45:41.568655 , 581
2015-10-28 16:45:41.568714 , 583
2015-10-28 16:45:41.568751 , 585
2015-10-28 16:45:41.584697 , 587
2015-10-28 16:45:41.584894 , 592
2015-10-28 16:45:41.585032 , 597
2015-10-28 16:45:41.600593 , 602
2015-10-28 16:45:41.600668 , 608
2015-10-28 16:45:41.600708 , 615
2015-10-28 16:45:41.616581 , 622
2015-10-28 16:45:41.616648 , 626
2015-10-28 16:45:41.616685 , 633
2015-10-28 16:45:41.632600 , 640
2015-10-28 16:45:41.632707 , 642
2015-10-28 16:45:41.632771 , 643
2015-10-28 16:45:41.632832 , 645
2015-10-28 16:45:41.648696 , 644
2015-10-28 16:45:41.648787 , 639
2015-10-28 16:45:41.648859 , 633
2015-10-28 16:45:41.664663 , 627
2015-10-28 16:45:41.664748 , 615
2015-10-28 16:45:41.664795 , 598
2015-10-28 16:45:41.680592 , 580
2015-10-28 16:45:41.680646 , 563
2015-10-28 16:45:41.680683 , 547
2015-10-28 16:45:41.696655 , 531
2015-10-28 16:45:41.696718 , 518
2015-10-28 16:45:41.696762 , 509
2015-10-28 16:45:41.712643 , 502
2015-10-28 16:45:41.712773 , 496
2015-10-28 16:45:41.712828 , 493
2015-10-28 16:45:41.728606 , 492
2015-10-28 16:45:41.728695 , 491
2015-10-28 16:45:41.728764 , 490
2015-10-28 16:45:41.744683 , 490
2015-10-28 16:45:41.744879 , 490
2015-10-28 16:45:41.744949 , 492
2015-10-28 16:45:41.760637 , 494
2015-10-28 16:45:41.760694 , 495
2015-10-28 16:45:41.760732 , 498
2015-10-28 16:45:41.776586 , 499
2015-10-28 16:45:41.776650 , 499
2015-10-28 16:45:41.776695 , 502
2015-10-28 16:45:41.792835 , 506
2015-10-28 16:45:41.792928 , 507
2015-10-28 16:45:41.792992 , 507
2015-10-28 16:45:41.808625 , 508
2015-10-28 16:45:41.808717 , 509
2015-10-28 16:45:41.808781 , 510
2015-10-28 16:45:41.824749 , 512
2015-10-28 16:45:41.824842 , 512
2015-10-28 16:45:41.824906 , 512
2015-10-28 16:45:41.840586 , 511
2015-10-28 16:45:41.840765 , 512
2015-10-28 16:45:41.840891 , 514
2015-10-28 16:45:41.856574 , 515
2015-10-28 16:45:41.856651 , 515
2015-10-28 16:45:41.856696 , 516
2015-10-28 16:45:41.872615 , 516
2015-10-28 16:45:41.872967 , 516
2015-10-28 16:45:41.873098 , 514
2015-10-28 16:45:41.873216 , 515
2015-10-28 16:45:41.888644 , 516
2015-10-28 16:45:41.888731 , 514
2015-10-28 16:45:41.888795 , 514
2015-10-28 16:45:41.904628 , 516
2015-10-28 16:45:41.904745 , 516
2015-10-28 16:45:41.904812 , 515
2015-10-28 16:45:41.920632 , 516
2015-10-28 16:45:41.920745 , 517
2015-10-28 16:45:41.920832 , 518
2015-10-28 16:45:41.936510 , 518
2015-10-28 16:45:41.936568 , 517
2015-10-28 16:45:41.936605 , 519
2015-10-28 16:45:41.952530 , 519
2015-10-28 16:45:41.952585 , 518
2015-10-28 16:45:41.952622 , 519
2015-10-28 16:45:41.968685 , 522
2015-10-28 16:45:41.968775 , 522
2015-10-28 16:45:41.968839 , 521
2015-10-28 16:45:41.984641 , 521
2015-10-28 16:45:41.984730 , 521
2015-10-28 16:45:41.984799 , 521
2015-10-28 16:45:42.000633 , 521
2015-10-28 16:45:42.000765 , 522
2015-10-28 16:45:42.000863 , 524
2015-10-28 16:45:42.016742 , 525
2015-10-28 16:45:42.016855 , 525
2015-10-28 16:45:42.016944 , 526
2015-10-28 16:45:42.032668 , 527
2015-10-28 16:45:42.032777 , 527
2015-10-28 16:45:42.032863 , 528
2015-10-28 16:45:42.048623 , 528
2015-10-28 16:45:42.048678 , 531
2015-10-28 16:45:42.048716 , 532
2015-10-28 16:45:42.064583 , 538
2015-10-28 16:45:42.064781 , 541
2015-10-28 16:45:42.064872 , 541
2015-10-28 16:45:42.080589 , 542
2015-10-28 16:45:42.080696 , 549
2015-10-28 16:45:42.080761 , 548
2015-10-28 16:45:42.096740 , 543
2015-10-28 16:45:42.096846 , 544
2015-10-28 16:45:42.096912 , 546
2015-10-28 16:45:42.112575 , 543
2015-10-28 16:45:42.112692 , 538
2015-10-28 16:45:42.112757 , 535
2015-10-28 16:45:42.112819 , 534
2015-10-28 16:45:42.128919 , 533
2015-10-28 16:45:42.129010 , 531
2015-10-28 16:45:42.129074 , 530
2015-10-28 16:45:42.144876 , 530
2015-10-28 16:45:42.144997 , 531
2015-10-28 16:45:42.145062 , 531
2015-10-28 16:45:42.160880 , 531
2015-10-28 16:45:42.160970 , 533
2015-10-28 16:45:42.161035 , 534
2015-10-28 16:45:42.176897 , 534
2015-10-28 16:45:42.177012 , 531
2015-10-28 16:45:42.177077 , 518
2015-10-28 16:45:42.192794 , 495
2015-10-28 16:45:42.192884 , 491
2015-10-28 16:45:42.192948 , 489
2015-10-28 16:45:42.208900 , 483
2015-10-28 16:45:42.209011 , 470
2015-10-28 16:45:42.209076 , 419
2015-10-28 16:45:42.224780 , 377
2015-10-28 16:45:42.224882 , 429
2015-10-28 16:45:42.224956 , 497
2015-10-28 16:45:42.240814 , 533
2015-10-28 16:45:42.240904 , 550
2015-10-28 16:45:42.240969 , 556
2015-10-28 16:45:42.257030 , 556
2015-10-28 16:45:42.257139 , 558
2015-10-28 16:45:42.257205 , 561
2015-10-28 16:45:42.272619 , 563
2015-10-28 16:45:42.272831 , 563
2015-10-28 16:45:42.272957 , 564
2015-10-28 16:45:42.288576 , 566
2015-10-28 16:45:42.288692 , 567
2015-10-28 16:45:42.288780 , 566
2015-10-28 16:45:42.304727 , 567
2015-10-28 16:45:42.304854 , 569
2015-10-28 16:45:42.304919 , 571
2015-10-28 16:45:42.320454 , 572
2015-10-28 16:45:42.320531 , 573
2015-10-28 16:45:42.320621 , 574
2015-10-28 16:45:42.336806 , 575
2015-10-28 16:45:42.336973 , 576
2015-10-28 16:45:42.337040 , 578
2015-10-28 16:45:42.352786 , 580
2015-10-28 16:45:42.352942 , 581
2015-10-28 16:45:42.353009 , 581
2015-10-28 16:45:42.353071 , 582
2015-10-28 16:45:42.368551 , 583
2015-10-28 16:45:42.368731 , 586
2015-10-28 16:45:42.368814 , 588
2015-10-28 16:45:42.384801 , 591
2015-10-28 16:45:42.384889 , 596
2015-10-28 16:45:42.384953 , 600
2015-10-28 16:45:42.400590 , 605
2015-10-28 16:45:42.400688 , 612
2015-10-28 16:45:42.400754 , 618
2015-10-28 16:45:42.416614 , 623
2015-10-28 16:45:42.416715 , 629
2015-10-28 16:45:42.416786 , 636
2015-10-28 16:45:42.432483 , 639
2015-10-28 16:45:42.432577 , 642
2015-10-28 16:45:42.432658 , 644
2015-10-28 16:45:42.448471 , 645
2015-10-28 16:45:42.448563 , 641
2015-10-28 16:45:42.448635 , 638
2015-10-28 16:45:42.464467 , 634
2015-10-28 16:45:42.464569 , 626
2015-10-28 16:45:42.464649 , 611
2015-10-28 16:45:42.480449 , 597
2015-10-28 16:45:42.480545 , 582
2015-10-28 16:45:42.480616 , 563
2015-10-28 16:45:42.496513 , 547
2015-10-28 16:45:42.496600 , 533
2015-10-28 16:45:42.496664 , 523
2015-10-28 16:45:42.513418 , 515
2015-10-28 16:45:42.513516 , 509
2015-10-28 16:45:42.513587 , 505
2015-10-28 16:45:42.528431 , 503
2015-10-28 16:45:42.528520 , 501
2015-10-28 16:45:42.528588 , 501
2015-10-28 16:45:42.544628 , 500
2015-10-28 16:45:42.544718 , 501
2015-10-28 16:45:42.544782 , 501
2015-10-28 16:45:42.560381 , 503
2015-10-28 16:45:42.560490 , 507
2015-10-28 16:45:42.560559 , 510
2015-10-28 16:45:42.576435 , 512
2015-10-28 16:45:42.576519 , 512
2015-10-28 16:45:42.576557 , 515
2015-10-28 16:45:42.592379 , 519
2015-10-28 16:45:42.592482 , 519
2015-10-28 16:45:42.592556 , 521
2015-10-28 16:45:42.643491 , 524
2015-10-28 16:45:42.643598 , 526
2015-10-28 16:45:42.643657 , 529
2015-10-28 16:45:42.643715 , 531
2015-10-28 16:45:42.643779 , 532
2015-10-28 16:45:42.643850 , 532
2015-10-28 16:45:42.643909 , 531
2015-10-28 16:45:42.643968 , 530
2015-10-28 16:45:42.644024 , 532
2015-10-28 16:45:42.644168 , 533
2015-10-28 16:45:42.656382 , 533
2015-10-28 16:45:42.656476 , 536
2015-10-28 16:45:42.656541 , 538
2015-10-28 16:45:42.672465 , 535
2015-10-28 16:45:42.672555 , 533
2015-10-28 16:45:42.672623 , 533
2015-10-28 16:45:42.688443 , 534
2015-10-28 16:45:42.688533 , 534
2015-10-28 16:45:42.688602 , 533
2015-10-28 16:45:42.704379 , 533
2015-10-28 16:45:42.704458 , 535
2015-10-28 16:45:42.704516 , 535
2015-10-28 16:45:42.720330 , 535
2015-10-28 16:45:42.720426 , 536
2015-10-28 16:45:42.720506 , 536
2015-10-28 16:45:42.736297 , 536
2015-10-28 16:45:42.736356 , 536
2015-10-28 16:45:42.736392 , 536
2015-10-28 16:45:42.752336 , 535
2015-10-28 16:45:42.752422 , 533
2015-10-28 16:45:42.752491 , 533
2015-10-28 16:45:42.768327 , 536
2015-10-28 16:45:42.768411 , 536
2015-10-28 16:45:42.768478 , 536
2015-10-28 16:45:42.785539 , 537
2015-10-28 16:45:42.785635 , 538
2015-10-28 16:45:42.785703 , 539
2015-10-28 16:45:42.800333 , 537
2015-10-28 16:45:42.800431 , 537
2015-10-28 16:45:42.800500 , 537
2015-10-28 16:45:42.816278 , 536
2015-10-28 16:45:42.816377 , 534
2015-10-28 16:45:42.816451 , 534
2015-10-28 16:45:42.832280 , 537
2015-10-28 16:45:42.832382 , 540
2015-10-28 16:45:42.832451 , 544
2015-10-28 16:45:42.848290 , 543
2015-10-28 16:45:42.848404 , 542
2015-10-28 16:45:42.848532 , 545
2015-10-28 16:45:42.848625 , 552
2015-10-28 16:45:42.864334 , 550
2015-10-28 16:45:42.864496 , 547
2015-10-28 16:45:42.864605 , 548
2015-10-28 16:45:42.881282 , 549
2015-10-28 16:45:42.881371 , 546
2015-10-28 16:45:42.881441 , 542
2015-10-28 16:45:42.896377 , 539
2015-10-28 16:45:42.896473 , 537
2015-10-28 16:45:42.896548 , 536
2015-10-28 16:45:42.912941 , 534
2015-10-28 16:45:42.913031 , 532
2015-10-28 16:45:42.913099 , 533
2015-10-28 16:45:42.928293 , 534
2015-10-28 16:45:42.928379 , 535
2015-10-28 16:45:42.928446 , 534
2015-10-28 16:45:42.944320 , 533
2015-10-28 16:45:42.944416 , 536
2015-10-28 16:45:42.944642 , 537
2015-10-28 16:45:42.960276 , 533
2015-10-28 16:45:42.960358 , 521
2015-10-28 16:45:42.960417 , 508
2015-10-28 16:45:42.976237 , 501
2015-10-28 16:45:42.976291 , 490
2015-10-28 16:45:42.976327 , 481
2015-10-28 16:45:42.992324 , 456
2015-10-28 16:45:42.992576 , 397
2015-10-28 16:45:42.992690 , 381
2015-10-28 16:45:43.008243 , 445
2015-10-28 16:45:43.008298 , 505
2015-10-28 16:45:43.008335 , 531
2015-10-28 16:45:43.024237 , 545
2015-10-28 16:45:43.024295 , 553
2015-10-28 16:45:43.024333 , 556
2015-10-28 16:45:43.040250 , 557
2015-10-28 16:45:43.040316 , 560
2015-10-28 16:45:43.040361 , 563
2015-10-28 16:45:43.056205 , 564
2015-10-28 16:45:43.056272 , 564
2015-10-28 16:45:43.056309 , 565
2015-10-28 16:45:43.072715 , 567
2015-10-28 16:45:43.072974 , 568
2015-10-28 16:45:43.073050 , 569
2015-10-28 16:45:43.088223 , 571
2015-10-28 16:45:43.088303 , 572
2015-10-28 16:45:43.088350 , 572
2015-10-28 16:45:43.088395 , 571
2015-10-28 16:45:43.104266 , 572
2015-10-28 16:45:43.104329 , 574
2015-10-28 16:45:43.104444 , 572
2015-10-28 16:45:43.120296 , 574
2015-10-28 16:45:43.120381 , 574
2015-10-28 16:45:43.120427 , 575
2015-10-28 16:45:43.136459 , 575
2015-10-28 16:45:43.136549 , 578
2015-10-28 16:45:43.136613 , 580
2015-10-28 16:45:43.152237 , 582
2015-10-28 16:45:43.152298 , 582
2015-10-28 16:45:43.152342 , 586
2015-10-28 16:45:43.168226 , 591
2015-10-28 16:45:43.168288 , 594
2015-10-28 16:45:43.168332 , 597
2015-10-28 16:45:43.184227 , 603
2015-10-28 16:45:43.184319 , 608
2015-10-28 16:45:43.184390 , 613
2015-10-28 16:45:43.200254 , 618
2015-10-28 16:45:43.200309 , 626
2015-10-28 16:45:43.200345 , 630
2015-10-28 16:45:43.216309 , 632
2015-10-28 16:45:43.216458 , 632
2015-10-28 16:45:43.216529 , 632
2015-10-28 16:45:43.232352 , 630
2015-10-28 16:45:43.232446 , 625
2015-10-28 16:45:43.232510 , 620
2015-10-28 16:45:43.248241 , 611
2015-10-28 16:45:43.248386 , 596
2015-10-28 16:45:43.248451 , 578
2015-10-28 16:45:43.264451 , 560
2015-10-28 16:45:43.264576 , 544
2015-10-28 16:45:43.264641 , 528
2015-10-28 16:45:43.280458 , 514
2015-10-28 16:45:43.280590 , 503
2015-10-28 16:45:43.280849 , 496
2015-10-28 16:45:43.296116 , 489
2015-10-28 16:45:43.296218 , 482
2015-10-28 16:45:43.296267 , 479
2015-10-28 16:45:43.312126 , 477
2015-10-28 16:45:43.312213 , 476
2015-10-28 16:45:43.312252 , 473
2015-10-28 16:45:43.328123 , 472
2015-10-28 16:45:43.328315 , 472
2015-10-28 16:45:43.328395 , 471
2015-10-28 16:45:43.328447 , 471
2015-10-28 16:45:43.344189 , 472
2015-10-28 16:45:43.344252 , 474
2015-10-28 16:45:43.344296 , 473
2015-10-28 16:45:43.360155 , 473
2015-10-28 16:45:43.360208 , 475
2015-10-28 16:45:43.360244 , 475
2015-10-28 16:45:43.376166 , 475
2015-10-28 16:45:43.376251 , 476
2015-10-28 16:45:43.376320 , 477
2015-10-28 16:45:43.392165 , 477
2015-10-28 16:45:43.392250 , 477
2015-10-28 16:45:43.392314 , 476
2015-10-28 16:45:43.408135 , 476
2015-10-28 16:45:43.408227 , 476
2015-10-28 16:45:43.408298 , 476
2015-10-28 16:45:43.424307 , 478
2015-10-28 16:45:43.424434 , 478
2015-10-28 16:45:43.424596 , 476
2015-10-28 16:45:43.440120 , 473
2015-10-28 16:45:43.440214 , 472
2015-10-28 16:45:43.440286 , 472
2015-10-28 16:45:43.456506 , 470
2015-10-28 16:45:43.457387 , 468
2015-10-28 16:45:43.457599 , 467
2015-10-28 16:45:43.472092 , 466
2015-10-28 16:45:43.472239 , 464
2015-10-28 16:45:43.472289 , 462
2015-10-28 16:45:43.488139 , 462
2015-10-28 16:45:43.488193 , 462
2015-10-28 16:45:43.488229 , 461
2015-10-28 16:45:43.504180 , 461
2015-10-28 16:45:43.504321 , 462
2015-10-28 16:45:43.504440 , 462
2015-10-28 16:45:43.520328 , 462
2015-10-28 16:45:43.520421 , 462
2015-10-28 16:45:43.520486 , 462
2015-10-28 16:45:43.536253 , 462
2015-10-28 16:45:43.536344 , 461
2015-10-28 16:45:43.536409 , 460
2015-10-28 16:45:43.552244 , 461
2015-10-28 16:45:43.552362 , 459
2015-10-28 16:45:43.552446 , 458
2015-10-28 16:45:43.568160 , 459
2015-10-28 16:45:43.568329 , 460
2015-10-28 16:45:43.568450 , 459
2015-10-28 16:45:43.584011 , 458
2015-10-28 16:45:43.584115 , 459
2015-10-28 16:45:43.584178 , 461
2015-10-28 16:45:43.584242 , 461
2015-10-28 16:45:43.600108 , 461
2015-10-28 16:45:43.600170 , 461
2015-10-28 16:45:43.600214 , 461
2015-10-28 16:45:43.616084 , 460
2015-10-28 16:45:43.616143 , 462
2015-10-28 16:45:43.616185 , 468
2015-10-28 16:45:43.632355 , 471
2015-10-28 16:45:43.632447 , 470
2015-10-28 16:45:43.632510 , 471
2015-10-28 16:45:43.648137 , 477
2015-10-28 16:45:43.648226 , 479
2015-10-28 16:45:43.648289 , 472
2015-10-28 16:45:43.664164 , 470
2015-10-28 16:45:43.664237 , 475
2015-10-28 16:45:43.664289 , 477
2015-10-28 16:45:43.680102 , 471
2015-10-28 16:45:43.680193 , 467
2015-10-28 16:45:43.680257 , 464
2015-10-28 16:45:43.696281 , 463
2015-10-28 16:45:43.696420 , 463
2015-10-28 16:45:43.696488 , 462
2015-10-28 16:45:43.712394 , 462
2015-10-28 16:45:43.712829 , 463
2015-10-28 16:45:43.712949 , 463
2015-10-28 16:45:43.728204 , 463
2015-10-28 16:45:43.728361 , 463
2015-10-28 16:45:43.728486 , 463
2015-10-28 16:45:43.743993 , 465
2015-10-28 16:45:43.744148 , 465
2015-10-28 16:45:43.744328 , 452
2015-10-28 16:45:43.760350 , 408
2015-10-28 16:45:43.760480 , 380
2015-10-28 16:45:43.760545 , 384
2015-10-28 16:45:43.776076 , 380
2015-10-28 16:45:43.776190 , 381
2015-10-28 16:45:43.776277 , 365
2015-10-28 16:45:43.792175 , 315
2015-10-28 16:45:43.792338 , 336
2015-10-28 16:45:43.792404 , 416
2015-10-28 16:45:43.808119 , 476
2015-10-28 16:45:43.808226 , 498
2015-10-28 16:45:43.808291 , 500
2015-10-28 16:45:43.824207 , 498
2015-10-28 16:45:43.824315 , 500
2015-10-28 16:45:43.824380 , 504
2015-10-28 16:45:43.824442 , 507
2015-10-28 16:45:43.840291 , 508
2015-10-28 16:45:43.840384 , 510
2015-10-28 16:45:43.840449 , 512
2015-10-28 16:45:43.856233 , 514
2015-10-28 16:45:43.856324 , 515
2015-10-28 16:45:43.856389 , 517
2015-10-28 16:45:43.872205 , 519
2015-10-28 16:45:43.872294 , 519
2015-10-28 16:45:43.872358 , 520
2015-10-28 16:45:43.888186 , 522
2015-10-28 16:45:43.888277 , 524
2015-10-28 16:45:43.888341 , 524
2015-10-28 16:45:43.904201 , 525
2015-10-28 16:45:43.904290 , 527
2015-10-28 16:45:43.904354 , 529
2015-10-28 16:45:43.920317 , 530
2015-10-28 16:45:43.920454 , 531
2015-10-28 16:45:43.920569 , 534
2015-10-28 16:45:43.936248 , 536
2015-10-28 16:45:43.936338 , 538
2015-10-28 16:45:43.936401 , 540
2015-10-28 16:45:43.952104 , 544
2015-10-28 16:45:43.952238 , 547
2015-10-28 16:45:43.952348 , 552
2015-10-28 16:45:43.969037 , 558
2015-10-28 16:45:43.973674 , 564
2015-10-28 16:45:43.973872 , 569
2015-10-28 16:45:43.983991 , 575
2015-10-28 16:45:43.984047 , 581
2015-10-28 16:45:43.984083 , 587
2015-10-28 16:45:44.000042 , 591
2015-10-28 16:45:44.000142 , 596
2015-10-28 16:45:44.000215 , 600
2015-10-28 16:45:44.016073 , 603
2015-10-28 16:45:44.016148 , 601
2015-10-28 16:45:44.016197 , 600
2015-10-28 16:45:44.031985 , 597
2015-10-28 16:45:44.032062 , 591
2015-10-28 16:45:44.032121 , 579
2015-10-28 16:45:44.048244 , 567
2015-10-28 16:45:44.048329 , 551
2015-10-28 16:45:44.048368 , 533
2015-10-28 16:45:44.063960 , 514
2015-10-28 16:45:44.064073 , 499
2015-10-28 16:45:44.064143 , 487
2015-10-28 16:45:44.064209 , 476
2015-10-28 16:45:44.079981 , 468
2015-10-28 16:45:44.080093 , 463
2015-10-28 16:45:44.080161 , 460
2015-10-28 16:45:44.096117 , 456
2015-10-28 16:45:44.096206 , 454
2015-10-28 16:45:44.096270 , 455
2015-10-28 16:45:44.112340 , 456
2015-10-28 16:45:44.112430 , 457
2015-10-28 16:45:44.112494 , 458
2015-10-28 16:45:44.128293 , 459
2015-10-28 16:45:44.128383 , 460
2015-10-28 16:45:44.128447 , 461
2015-10-28 16:45:44.144248 , 465
2015-10-28 16:45:44.144336 , 469
2015-10-28 16:45:44.144400 , 471
2015-10-28 16:45:44.160030 , 472
2015-10-28 16:45:44.160118 , 474
2015-10-28 16:45:44.160183 , 476
2015-10-28 16:45:44.175983 , 477
2015-10-28 16:45:44.176074 , 477
2015-10-28 16:45:44.176138 , 479
2015-10-28 16:45:44.191935 , 480
2015-10-28 16:45:44.192013 , 481
2015-10-28 16:45:44.192049 , 481
2015-10-28 16:45:44.207951 , 482
2015-10-28 16:45:44.208066 , 483
2015-10-28 16:45:44.208113 , 482
2015-10-28 16:45:44.223919 , 484
2015-10-28 16:45:44.223985 , 486
2015-10-28 16:45:44.224027 , 488
2015-10-28 16:45:44.239936 , 486
2015-10-28 16:45:44.240036 , 485
2015-10-28 16:45:44.240142 , 485
2015-10-28 16:45:44.255943 , 486
2015-10-28 16:45:44.256012 , 486
2015-10-28 16:45:44.256059 , 487
2015-10-28 16:45:44.271880 , 488
2015-10-28 16:45:44.271986 , 489
2015-10-28 16:45:44.272052 , 490
2015-10-28 16:45:44.287934 , 490
2015-10-28 16:45:44.288053 , 491
2015-10-28 16:45:44.288119 , 492
2015-10-28 16:45:44.303896 , 492
2015-10-28 16:45:44.303998 , 493
2015-10-28 16:45:44.304117 , 494
2015-10-28 16:45:44.304193 , 494
2015-10-28 16:45:44.319939 , 492
2015-10-28 16:45:44.320078 , 494
2015-10-28 16:45:44.320175 , 495
2015-10-28 16:45:44.337153 , 495
2015-10-28 16:45:44.337238 , 495
2015-10-28 16:45:44.337301 , 498
2015-10-28 16:45:44.351933 , 499
2015-10-28 16:45:44.352072 , 499
2015-10-28 16:45:44.352118 , 499
2015-10-28 16:45:44.367885 , 500
2015-10-28 16:45:44.367981 , 500
2015-10-28 16:45:44.368055 , 500
2015-10-28 16:45:44.390852 , 501
2015-10-28 16:45:44.390978 , 503
2015-10-28 16:45:44.391100 , 504
2015-10-28 16:45:44.399996 , 504
2015-10-28 16:45:44.400080 , 506
2015-10-28 16:45:44.400142 , 507
2015-10-28 16:45:44.415887 , 507
2015-10-28 16:45:44.415980 , 508
2015-10-28 16:45:44.416048 , 511
2015-10-28 16:45:44.431839 , 514
2015-10-28 16:45:44.431893 , 517
2015-10-28 16:45:44.431929 , 522
2015-10-28 16:45:44.448453 , 524
2015-10-28 16:45:44.448538 , 523
2015-10-28 16:45:44.448600 , 524
2015-10-28 16:45:44.463805 , 529
2015-10-28 16:45:44.463860 , 529
2015-10-28 16:45:44.463897 , 527
2015-10-28 16:45:44.479782 , 529
2015-10-28 16:45:44.479837 , 532
2015-10-28 16:45:44.479874 , 529
2015-10-28 16:45:44.495799 , 523
2015-10-28 16:45:44.495856 , 519
2015-10-28 16:45:44.495893 , 520
2015-10-28 16:45:44.511819 , 521
2015-10-28 16:45:44.511876 , 520
2015-10-28 16:45:44.511913 , 519
2015-10-28 16:45:44.527761 , 520
2015-10-28 16:45:44.527870 , 522
2015-10-28 16:45:44.527933 , 521
2015-10-28 16:45:44.543766 , 520
2015-10-28 16:45:44.543866 , 520
2015-10-28 16:45:44.543932 , 521
2015-10-28 16:45:44.562470 , 524
2015-10-28 16:45:44.562590 , 520
2015-10-28 16:45:44.562667 , 504
2015-10-28 16:45:44.562740 , 467
2015-10-28 16:45:44.575907 , 459
2015-10-28 16:45:44.576024 , 462
2015-10-28 16:45:44.576072 , 457
2015-10-28 16:45:44.591899 , 452
2015-10-28 16:45:44.591990 , 411
2015-10-28 16:45:44.592108 , 365
2015-10-28 16:45:44.608655 , 416
2015-10-28 16:45:44.608757 , 492
2015-10-28 16:45:44.608911 , 536
2015-10-28 16:45:44.623798 , 552
2015-10-28 16:45:44.623902 , 556
2015-10-28 16:45:44.624014 , 557
2015-10-28 16:45:44.639783 , 558
2015-10-28 16:45:44.639869 , 561
2015-10-28 16:45:44.639934 , 564
2015-10-28 16:45:44.655873 , 565
2015-10-28 16:45:44.655946 , 568
2015-10-28 16:45:44.655986 , 569
2015-10-28 16:45:44.671800 , 570
2015-10-28 16:45:44.671855 , 570
2015-10-28 16:45:44.671901 , 572
2015-10-28 16:45:44.687979 , 575
2015-10-28 16:45:44.688071 , 575
2015-10-28 16:45:44.688154 , 575
2015-10-28 16:45:44.704363 , 575
2015-10-28 16:45:44.704455 , 579
2015-10-28 16:45:44.704583 , 580
2015-10-28 16:45:44.719720 , 580
2015-10-28 16:45:44.719777 , 582
2015-10-28 16:45:44.719814 , 586
2015-10-28 16:45:44.735745 , 587
2015-10-28 16:45:44.735835 , 587
2015-10-28 16:45:44.735904 , 589
2015-10-28 16:45:44.751744 , 592
2015-10-28 16:45:44.751799 , 596
2015-10-28 16:45:44.751836 , 598
2015-10-28 16:45:44.767681 , 602
2015-10-28 16:45:44.767748 , 605
2015-10-28 16:45:44.767785 , 609
2015-10-28 16:45:44.784327 , 615
2015-10-28 16:45:44.784434 , 623
2015-10-28 16:45:44.784505 , 628
2015-10-28 16:45:44.799742 , 631
2015-10-28 16:45:44.799934 , 636
2015-10-28 16:45:44.800020 , 643
2015-10-28 16:45:44.800123 , 648
2015-10-28 16:45:44.815697 , 648
2015-10-28 16:45:44.815749 , 648
2015-10-28 16:45:44.815786 , 649
2015-10-28 16:45:44.831771 , 649
2015-10-28 16:45:44.831870 , 646
2015-10-28 16:45:44.831921 , 641
2015-10-28 16:45:44.848067 , 633
2015-10-28 16:45:44.848156 , 621
2015-10-28 16:45:44.848220 , 606
2015-10-28 16:45:44.863871 , 590
2015-10-28 16:45:44.863960 , 573
2015-10-28 16:45:44.864024 , 556
2015-10-28 16:45:44.879970 , 540
2015-10-28 16:45:44.880083 , 528
2015-10-28 16:45:44.880147 , 518
2015-10-28 16:45:44.895940 , 510
2015-10-28 16:45:44.896029 , 504
2015-10-28 16:45:44.896094 , 500
2015-10-28 16:45:44.911994 , 496
2015-10-28 16:45:44.912115 , 494
2015-10-28 16:45:44.912180 , 493
2015-10-28 16:45:44.927764 , 493
2015-10-28 16:45:44.928057 , 493
2015-10-28 16:45:44.928234 , 492
2015-10-28 16:45:44.943806 , 491
2015-10-28 16:45:44.943899 , 494
2015-10-28 16:45:44.943974 , 495
2015-10-28 16:45:44.959650 , 496
2015-10-28 16:45:44.959707 , 498
2015-10-28 16:45:44.959743 , 500
2015-10-28 16:45:44.975646 , 501
2015-10-28 16:45:44.975735 , 501
2015-10-28 16:45:44.975801 , 502
2015-10-28 16:45:44.991675 , 505
2015-10-28 16:45:44.991761 , 504
2015-10-28 16:45:44.991834 , 503
2015-10-28 16:45:45.008077 , 505
2015-10-28 16:45:45.008335 , 506
2015-10-28 16:45:45.008413 , 506
2015-10-28 16:45:45.023627 , 506
2015-10-28 16:45:45.023763 , 506
2015-10-28 16:45:45.023839 , 506
2015-10-28 16:45:45.039897 , 503
2015-10-28 16:45:45.040231 , 502
2015-10-28 16:45:45.040309 , 502
2015-10-28 16:45:45.040411 , 502
2015-10-28 16:45:45.058650 , 501
2015-10-28 16:45:45.058817 , 502
2015-10-28 16:45:45.058898 , 502
2015-10-28 16:45:45.071851 , 500
2015-10-28 16:45:45.071954 , 499
2015-10-28 16:45:45.072025 , 499
2015-10-28 16:45:45.088030 , 500
2015-10-28 16:45:45.088183 , 499
2015-10-28 16:45:45.088284 , 497
2015-10-28 16:45:45.104019 , 497
2015-10-28 16:45:45.104171 , 499
2015-10-28 16:45:45.104304 , 498
2015-10-28 16:45:45.119813 , 496
2015-10-28 16:45:45.119902 , 497
2015-10-28 16:45:45.119966 , 499
2015-10-28 16:45:45.135846 , 498
2015-10-28 16:45:45.135937 , 497
2015-10-28 16:45:45.136000 , 499
2015-10-28 16:45:45.151783 , 500
2015-10-28 16:45:45.151860 , 500
2015-10-28 16:45:45.151940 , 499
2015-10-28 16:45:45.167680 , 502
2015-10-28 16:45:45.167770 , 500
2015-10-28 16:45:45.167834 , 498
2015-10-28 16:45:45.183891 , 497
2015-10-28 16:45:45.184008 , 498
2015-10-28 16:45:45.184072 , 498
2015-10-28 16:45:45.199562 , 497
2015-10-28 16:45:45.199689 , 496
2015-10-28 16:45:45.199782 , 498
2015-10-28 16:45:45.215575 , 497
2015-10-28 16:45:45.215667 , 496
2015-10-28 16:45:45.215725 , 497
2015-10-28 16:45:45.231565 , 499
2015-10-28 16:45:45.231788 , 498
2015-10-28 16:45:45.231877 , 497
2015-10-28 16:45:45.247543 , 500
2015-10-28 16:45:45.247637 , 503
2015-10-28 16:45:45.247707 , 507
2015-10-28 16:45:45.263729 , 507
2015-10-28 16:45:45.263882 , 505
2015-10-28 16:45:45.263947 , 508
2015-10-28 16:45:45.279540 , 515
2015-10-28 16:45:45.279706 , 512
2015-10-28 16:45:45.279787 , 507
2015-10-28 16:45:45.295529 , 508
2015-10-28 16:45:45.295606 , 508
2015-10-28 16:45:45.295650 , 506
2015-10-28 16:45:45.295692 , 504
2015-10-28 16:45:45.311578 , 500
2015-10-28 16:45:45.311670 , 498
2015-10-28 16:45:45.311720 , 498
2015-10-28 16:45:45.327652 , 498
2015-10-28 16:45:45.327741 , 497
2015-10-28 16:45:45.327805 , 496
2015-10-28 16:45:45.343622 , 497
2015-10-28 16:45:45.343715 , 497
2015-10-28 16:45:45.343779 , 495
2015-10-28 16:45:45.359607 , 495
2015-10-28 16:45:45.359852 , 499
2015-10-28 16:45:45.359980 , 505
2015-10-28 16:45:45.375551 , 502
2015-10-28 16:45:45.375688 , 491
2015-10-28 16:45:45.375730 , 475
2015-10-28 16:45:45.391498 , 472
2015-10-28 16:45:45.391554 , 462
2015-10-28 16:45:45.391654 , 451
2015-10-28 16:45:45.407695 , 436
2015-10-28 16:45:45.407784 , 389
2015-10-28 16:45:45.407850 , 350
2015-10-28 16:45:45.423465 , 396
2015-10-28 16:45:45.423519 , 466
2015-10-28 16:45:45.423555 , 500
2015-10-28 16:45:45.439528 , 515
2015-10-28 16:45:45.439584 , 525
2015-10-28 16:45:45.439620 , 530
2015-10-28 16:45:45.455517 , 531
2015-10-28 16:45:45.455663 , 532
2015-10-28 16:45:45.455782 , 535
2015-10-28 16:45:45.471451 , 537
2015-10-28 16:45:45.471530 , 537
2015-10-28 16:45:45.471597 , 538
2015-10-28 16:45:45.487442 , 541
2015-10-28 16:45:45.487515 , 545
2015-10-28 16:45:45.487554 , 545
2015-10-28 16:45:45.503443 , 546
2015-10-28 16:45:45.503567 , 548
2015-10-28 16:45:45.503614 , 550
2015-10-28 16:45:45.519418 , 549
2015-10-28 16:45:45.519505 , 549
2015-10-28 16:45:45.519561 , 553
2015-10-28 16:45:45.535434 , 556
2015-10-28 16:45:45.535500 , 556
2015-10-28 16:45:45.535537 , 557
2015-10-28 16:45:45.535572 , 560
2015-10-28 16:45:45.551473 , 562
2015-10-28 16:45:45.551538 , 561
2015-10-28 16:45:45.551606 , 563
2015-10-28 16:45:45.567428 , 566
2015-10-28 16:45:45.567482 , 566
2015-10-28 16:45:45.567518 , 569
2015-10-28 16:45:45.583442 , 574
2015-10-28 16:45:45.583532 , 580
2015-10-28 16:45:45.583602 , 586
2015-10-28 16:45:45.599486 , 592
2015-10-28 16:45:45.599575 , 598
2015-10-28 16:45:45.599644 , 604
2015-10-28 16:45:45.615416 , 609
2015-10-28 16:45:45.615500 , 614
2015-10-28 16:45:45.615564 , 620
2015-10-28 16:45:45.631457 , 625
2015-10-28 16:45:45.631534 , 627
2015-10-28 16:45:45.631598 , 627
2015-10-28 16:45:45.648803 , 627
2015-10-28 16:45:45.648915 , 625
2015-10-28 16:45:45.648981 , 622
2015-10-28 16:45:45.663514 , 615
2015-10-28 16:45:45.663617 , 604
2015-10-28 16:45:45.663696 , 590
2015-10-28 16:45:45.679855 , 573
2015-10-28 16:45:45.680012 , 556
2015-10-28 16:45:45.680131 , 541
2015-10-28 16:45:45.695397 , 526
2015-10-28 16:45:45.695484 , 514
2015-10-28 16:45:45.695549 , 505
2015-10-28 16:45:45.711457 , 500
2015-10-28 16:45:45.711607 , 494
2015-10-28 16:45:45.711677 , 488
2015-10-28 16:45:45.727597 , 486
2015-10-28 16:45:45.727687 , 486
2015-10-28 16:45:45.727752 , 484
2015-10-28 16:45:45.743541 , 482
2015-10-28 16:45:45.743619 , 484
2015-10-28 16:45:45.743663 , 485
2015-10-28 16:45:45.759376 , 486
2015-10-28 16:45:45.759482 , 487
2015-10-28 16:45:45.759549 , 489
2015-10-28 16:45:45.775442 , 490
2015-10-28 16:45:45.775565 , 492
2015-10-28 16:45:45.775633 , 494
2015-10-28 16:45:45.775696 , 496
2015-10-28 16:45:45.791442 , 497
2015-10-28 16:45:45.791531 , 497
2015-10-28 16:45:45.791595 , 497
2015-10-28 16:45:45.807457 , 500
2015-10-28 16:45:45.807547 , 502
2015-10-28 16:45:45.807611 , 502
2015-10-28 16:45:45.823638 , 502
2015-10-28 16:45:45.823727 , 503
2015-10-28 16:45:45.823791 , 502
2015-10-28 16:45:45.839549 , 502
2015-10-28 16:45:45.839639 , 502
2015-10-28 16:45:45.839703 , 501
2015-10-28 16:45:45.855567 , 499
2015-10-28 16:45:45.855658 , 498
2015-10-28 16:45:45.855722 , 496
2015-10-28 16:45:45.871604 , 497
2015-10-28 16:45:45.871694 , 496
2015-10-28 16:45:45.871896 , 495
2015-10-28 16:45:45.887696 , 494
2015-10-28 16:45:45.887882 , 494
2015-10-28 16:45:45.887954 , 494
2015-10-28 16:45:45.903431 , 493
2015-10-28 16:45:45.903670 , 494
2015-10-28 16:45:45.903753 , 494
2015-10-28 16:45:45.919438 , 491
2015-10-28 16:45:45.919528 , 491
2015-10-28 16:45:45.919592 , 491
2015-10-28 16:45:45.935378 , 491
2015-10-28 16:45:45.935533 , 490
2015-10-28 16:45:45.935614 , 489
2015-10-28 16:45:45.951609 , 490
2015-10-28 16:45:45.951702 , 490
2015-10-28 16:45:45.951767 , 490
2015-10-28 16:45:45.967622 , 490
2015-10-28 16:45:45.967714 , 490
2015-10-28 16:45:45.967778 , 491
2015-10-28 16:45:45.983413 , 489
2015-10-28 16:45:45.983518 , 489
2015-10-28 16:45:45.983584 , 490
2015-10-28 16:45:45.999377 , 488
2015-10-28 16:45:45.999442 , 487
2015-10-28 16:45:45.999541 , 487
2015-10-28 16:45:46.015414 , 488
2015-10-28 16:45:46.015522 , 487
2015-10-28 16:45:46.015586 , 486
2015-10-28 16:45:46.015648 , 485
2015-10-28 16:45:46.031452 , 485
2015-10-28 16:45:46.031558 , 483
2015-10-28 16:45:46.031623 , 482
2015-10-28 16:45:46.047487 , 485
2015-10-28 16:45:46.047602 , 489
2015-10-28 16:45:46.047668 , 493
2015-10-28 16:45:46.063417 , 491
2015-10-28 16:45:46.063488 , 492
2015-10-28 16:45:46.063532 , 498
2015-10-28 16:45:46.079362 , 501
2015-10-28 16:45:46.079416 , 496
2015-10-28 16:45:46.079467 , 495
2015-10-28 16:45:46.095435 , 497
2015-10-28 16:45:46.095493 , 495
2015-10-28 16:45:46.095532 , 490
2015-10-28 16:45:46.111361 , 487
2015-10-28 16:45:46.111438 , 485
2015-10-28 16:45:46.111571 , 482
2015-10-28 16:45:46.127368 , 481
2015-10-28 16:45:46.127436 , 481
2015-10-28 16:45:46.127473 , 480
2015-10-28 16:45:46.143318 , 480
2015-10-28 16:45:46.143397 , 480
2015-10-28 16:45:46.143455 , 481
2015-10-28 16:45:46.159349 , 479
2015-10-28 16:45:46.159477 , 478
2015-10-28 16:45:46.159539 , 480
2015-10-28 16:45:46.175390 , 480
2015-10-28 16:45:46.175555 , 468
2015-10-28 16:45:46.175632 , 427
2015-10-28 16:45:46.191339 , 400
2015-10-28 16:45:46.191405 , 400
2015-10-28 16:45:46.191462 , 395
2015-10-28 16:45:46.207347 , 394
2015-10-28 16:45:46.207577 , 377
2015-10-28 16:45:46.207740 , 326
2015-10-28 16:45:46.223334 , 340
2015-10-28 16:45:46.223439 , 418
2015-10-28 16:45:46.223508 , 479
2015-10-28 16:45:46.239339 , 503
2015-10-28 16:45:46.239448 , 504
2015-10-28 16:45:46.239514 , 504
2015-10-28 16:45:46.255323 , 505
2015-10-28 16:45:46.255462 , 506
2015-10-28 16:45:46.255542 , 508
2015-10-28 16:45:46.271314 , 511
2015-10-28 16:45:46.271420 , 513
2015-10-28 16:45:46.271486 , 514
2015-10-28 16:45:46.271547 , 516
2015-10-28 16:45:46.287491 , 519
2015-10-28 16:45:46.287579 , 522
2015-10-28 16:45:46.287648 , 523
2015-10-28 16:45:46.303502 , 524
2015-10-28 16:45:46.303592 , 525
2015-10-28 16:45:46.303656 , 526
2015-10-28 16:45:46.319603 , 526
2015-10-28 16:45:46.319695 , 527
2015-10-28 16:45:46.319760 , 528
2015-10-28 16:45:46.335482 , 529
2015-10-28 16:45:46.335571 , 529
2015-10-28 16:45:46.335635 , 531
2015-10-28 16:45:46.351454 , 533
2015-10-28 16:45:46.351545 , 533
2015-10-28 16:45:46.351608 , 534
2015-10-28 16:45:46.367484 , 536
2015-10-28 16:45:46.367573 , 541
2015-10-28 16:45:46.367637 , 545
2015-10-28 16:45:46.383240 , 547
2015-10-28 16:45:46.383313 , 552
2015-10-28 16:45:46.383358 , 558
2015-10-28 16:45:46.399287 , 563
2015-10-28 16:45:46.399387 , 568
2015-10-28 16:45:46.399459 , 575
2015-10-28 16:45:46.415625 , 580
2015-10-28 16:45:46.415724 , 585
2015-10-28 16:45:46.415786 , 590
2015-10-28 16:45:46.431240 , 595
2015-10-28 16:45:46.431334 , 599
2015-10-28 16:45:46.431402 , 599
2015-10-28 16:45:46.451945 , 598
2015-10-28 16:45:46.452246 , 598
2015-10-28 16:45:46.452990 , 596
2015-10-28 16:45:46.477235 , 590
2015-10-28 16:45:46.477360 , 580
2015-10-28 16:45:46.477428 , 569
2015-10-28 16:45:46.483046 , 553
2015-10-28 16:45:46.483645 , 534
2015-10-28 16:45:46.483827 , 517
2015-10-28 16:45:46.495217 , 501
2015-10-28 16:45:46.495321 , 488
2015-10-28 16:45:46.495385 , 476
2015-10-28 16:45:46.511144 , 470
2015-10-28 16:45:46.511207 , 465
2015-10-28 16:45:46.511244 , 458
2015-10-28 16:45:46.511280 , 455
2015-10-28 16:45:46.527165 , 454
2015-10-28 16:45:46.527217 , 454
2015-10-28 16:45:46.527253 , 452
2015-10-28 16:45:46.543167 , 452
2015-10-28 16:45:46.543220 , 455
2015-10-28 16:45:46.543257 , 458
2015-10-28 16:45:46.559208 , 459
2015-10-28 16:45:46.559291 , 460
2015-10-28 16:45:46.559355 , 463
2015-10-28 16:45:46.575170 , 464
2015-10-28 16:45:46.575232 , 465
2015-10-28 16:45:46.575275 , 468
2015-10-28 16:45:46.591165 , 472
2015-10-28 16:45:46.591248 , 473
2015-10-28 16:45:46.591312 , 473
2015-10-28 16:45:46.607158 , 473
2015-10-28 16:45:46.607212 , 474
2015-10-28 16:45:46.607248 , 475
2015-10-28 16:45:46.623157 , 476
2015-10-28 16:45:46.623211 , 478
2015-10-28 16:45:46.623247 , 479
2015-10-28 16:45:46.639802 , 478
2015-10-28 16:45:46.639876 , 478
2015-10-28 16:45:46.639928 , 479
2015-10-28 16:45:46.655914 , 478
2015-10-28 16:45:46.655978 , 474
2015-10-28 16:45:46.656022 , 474
2015-10-28 16:45:46.671119 , 476
2015-10-28 16:45:46.671172 , 477
2015-10-28 16:45:46.671208 , 477
2015-10-28 16:45:46.687112 , 477
2015-10-28 16:45:46.687187 , 478
2015-10-28 16:45:46.687291 , 479
2015-10-28 16:45:46.703098 , 478
2015-10-28 16:45:46.703153 , 478
2015-10-28 16:45:46.703190 , 478
2015-10-28 16:45:46.719120 , 479
2015-10-28 16:45:46.719196 , 477
2015-10-28 16:45:46.719282 , 479
2015-10-28 16:45:46.735083 , 479
2015-10-28 16:45:46.735184 , 479
2015-10-28 16:45:46.735235 , 478
2015-10-28 16:45:46.751112 , 480
2015-10-28 16:45:46.751195 , 482
2015-10-28 16:45:46.751233 , 481
2015-10-28 16:45:46.751268 , 481
2015-10-28 16:45:46.767129 , 483
2015-10-28 16:45:46.767217 , 484
2015-10-28 16:45:46.767285 , 484
2015-10-28 16:45:46.783120 , 483
2015-10-28 16:45:46.783175 , 485
2015-10-28 16:45:46.783219 , 486
2015-10-28 16:45:46.799125 , 486
2015-10-28 16:45:46.799191 , 486
2015-10-28 16:45:46.799242 , 488
2015-10-28 16:45:46.815118 , 489
2015-10-28 16:45:46.815201 , 489
2015-10-28 16:45:46.815267 , 491
2015-10-28 16:45:46.831243 , 493
2015-10-28 16:45:46.831393 , 493
2015-10-28 16:45:46.831593 , 492
2015-10-28 16:45:46.847135 , 492
2015-10-28 16:45:46.847226 , 494
2015-10-28 16:45:46.847294 , 496
2015-10-28 16:45:46.863188 , 497
2015-10-28 16:45:46.863279 , 502
2015-10-28 16:45:46.863351 , 506
2015-10-28 16:45:46.879055 , 503
2015-10-28 16:45:46.879107 , 502
2015-10-28 16:45:46.879143 , 510
2015-10-28 16:45:46.896316 , 514
2015-10-28 16:45:46.896416 , 508
2015-10-28 16:45:46.896485 , 508
2015-10-28 16:45:46.911497 , 512
2015-10-28 16:45:46.911588 , 511
2015-10-28 16:45:46.911656 , 506
2015-10-28 16:45:46.927050 , 502
2015-10-28 16:45:46.927143 , 502
2015-10-28 16:45:46.927212 , 501
2015-10-28 16:45:46.943094 , 498
2015-10-28 16:45:46.943181 , 498
2015-10-28 16:45:46.943241 , 499
2015-10-28 16:45:46.959115 , 500
2015-10-28 16:45:46.959222 , 498
2015-10-28 16:45:46.959347 , 497
2015-10-28 16:45:46.974995 , 499
2015-10-28 16:45:46.975069 , 500
2015-10-28 16:45:46.975107 , 503
2015-10-28 16:45:46.990981 , 501
2015-10-28 16:45:46.991059 , 487
2015-10-28 16:45:46.991103 , 447
2015-10-28 16:45:46.991145 , 429
2015-10-28 16:45:47.007039 , 433
2015-10-28 16:45:47.007126 , 426
2015-10-28 16:45:47.007270 , 425
2015-10-28 16:45:47.023010 , 398
2015-10-28 16:45:47.023074 , 343
2015-10-28 16:45:47.023118 , 373
2015-10-28 16:45:47.039025 , 454
2015-10-28 16:45:47.039078 , 510
2015-10-28 16:45:47.039115 , 531
2015-10-28 16:45:47.054989 , 533
2015-10-28 16:45:47.055042 , 532
2015-10-28 16:45:47.055078 , 535
2015-10-28 16:45:47.071022 , 539
2015-10-28 16:45:47.071122 , 540
2015-10-28 16:45:47.071195 , 541
2015-10-28 16:45:47.086983 , 542
2015-10-28 16:45:47.087071 , 543
2015-10-28 16:45:47.087143 , 545
2015-10-28 16:45:47.102955 , 546
2015-10-28 16:45:47.103010 , 547
2015-10-28 16:45:47.103046 , 550
2015-10-28 16:45:47.118961 , 550
2015-10-28 16:45:47.119017 , 551
2015-10-28 16:45:47.119055 , 553
2015-10-28 16:45:47.135007 , 555
2015-10-28 16:45:47.135061 , 554
2015-10-28 16:45:47.135097 , 555
2015-10-28 16:45:47.150982 , 557
2015-10-28 16:45:47.151034 , 559
2015-10-28 16:45:47.151070 , 560
2015-10-28 16:45:47.166945 , 563
2015-10-28 16:45:47.167040 , 566
2015-10-28 16:45:47.167111 , 567
2015-10-28 16:45:47.182938 , 568
2015-10-28 16:45:47.183004 , 572
2015-10-28 16:45:47.183056 , 576
2015-10-28 16:45:47.198974 , 581
2015-10-28 16:45:47.199073 , 584
2015-10-28 16:45:47.199151 , 588
2015-10-28 16:45:47.214880 , 595
2015-10-28 16:45:47.214947 , 600
2015-10-28 16:45:47.214983 , 605
2015-10-28 16:45:47.230886 , 611
2015-10-28 16:45:47.230952 , 617
2015-10-28 16:45:47.230989 , 620
2015-10-28 16:45:47.246934 , 623
2015-10-28 16:45:47.247060 , 626
2015-10-28 16:45:47.247131 , 628
2015-10-28 16:45:47.247267 , 628
2015-10-28 16:45:47.262963 , 624
2015-10-28 16:45:47.263138 , 620
2015-10-28 16:45:47.263222 , 613
2015-10-28 16:45:47.278917 , 603
2015-10-28 16:45:47.279008 , 589
2015-10-28 16:45:47.279078 , 574
2015-10-28 16:45:47.294919 , 557
2015-10-28 16:45:47.295010 , 538
2015-10-28 16:45:47.295085 , 522
2015-10-28 16:45:47.310916 , 510
2015-10-28 16:45:47.310970 , 499
2015-10-28 16:45:47.311006 , 490
2015-10-28 16:45:47.326875 , 483
2015-10-28 16:45:47.326934 , 479
2015-10-28 16:45:47.326971 , 475
2015-10-28 16:45:47.342913 , 472
2015-10-28 16:45:47.343009 , 471
2015-10-28 16:45:47.343115 , 472
2015-10-28 16:45:47.358848 , 472
2015-10-28 16:45:47.358901 , 472
2015-10-28 16:45:47.358959 , 474
2015-10-28 16:45:47.374894 , 477
2015-10-28 16:45:47.375017 , 480
2015-10-28 16:45:47.375092 , 481
2015-10-28 16:45:47.390882 , 483
2015-10-28 16:45:47.390972 , 485
2015-10-28 16:45:47.391041 , 485
2015-10-28 16:45:47.406837 , 487
2015-10-28 16:45:47.406895 , 489
2015-10-28 16:45:47.406933 , 489
2015-10-28 16:45:47.422858 , 489
2015-10-28 16:45:47.422949 , 491
2015-10-28 16:45:47.423015 , 493
2015-10-28 16:45:47.438945 , 495
2015-10-28 16:45:47.439034 , 494
2015-10-28 16:45:47.439075 , 494
2015-10-28 16:45:47.454798 , 494
2015-10-28 16:45:47.454862 , 494
2015-10-28 16:45:47.454899 , 494
2015-10-28 16:45:47.470794 , 495
2015-10-28 16:45:47.470868 , 496
2015-10-28 16:45:47.470905 , 494
2015-10-28 16:45:47.486857 , 492
2015-10-28 16:45:47.486960 , 494
2015-10-28 16:45:47.487031 , 497
2015-10-28 16:45:47.487070 , 496
2015-10-28 16:45:47.502900 , 495
2015-10-28 16:45:47.502998 , 496
2015-10-28 16:45:47.503076 , 497
2015-10-28 16:45:47.518872 , 497
2015-10-28 16:45:47.518967 , 496
2015-10-28 16:45:47.519040 , 496
2015-10-28 16:45:47.534842 , 498
2015-10-28 16:45:47.534897 , 498
2015-10-28 16:45:47.534933 , 499
2015-10-28 16:45:47.550818 , 501
2015-10-28 16:45:47.550871 , 499
2015-10-28 16:45:47.550908 , 499
2015-10-28 16:45:47.566817 , 500
2015-10-28 16:45:47.566938 , 502
2015-10-28 16:45:47.567017 , 502
2015-10-28 16:45:47.582838 , 503
2015-10-28 16:45:47.582929 , 504
2015-10-28 16:45:47.583004 , 506
2015-10-28 16:45:47.598828 , 506
2015-10-28 16:45:47.598916 , 507
2015-10-28 16:45:47.598983 , 508
2015-10-28 16:45:47.614828 , 509
2015-10-28 16:45:47.614894 , 509
2015-10-28 16:45:47.614938 , 508
2015-10-28 16:45:47.630807 , 509
2015-10-28 16:45:47.630862 , 510
2015-10-28 16:45:47.630898 , 509
2015-10-28 16:45:47.646801 , 509
2015-10-28 16:45:47.646867 , 510
2015-10-28 16:45:47.646911 , 511
2015-10-28 16:45:47.662812 , 512
2015-10-28 16:45:47.662967 , 513
2015-10-28 16:45:47.663055 , 513
2015-10-28 16:45:47.678750 , 515
2015-10-28 16:45:47.678807 , 514
2015-10-28 16:45:47.678844 , 516
2015-10-28 16:45:47.694809 , 520
2015-10-28 16:45:47.694975 , 525
2015-10-28 16:45:47.695071 , 525
2015-10-28 16:45:47.710730 , 523
2015-10-28 16:45:47.710841 , 526
2015-10-28 16:45:47.710916 , 533
2015-10-28 16:45:47.726753 , 530
2015-10-28 16:45:47.726897 , 527
2015-10-28 16:45:47.726980 , 530
2015-10-28 16:45:47.727060 , 532
2015-10-28 16:45:47.742750 , 528
2015-10-28 16:45:47.742804 , 523
2015-10-28 16:45:47.742852 , 519
2015-10-28 16:45:47.758798 , 518
2015-10-28 16:45:47.758885 , 516
2015-10-28 16:45:47.758925 , 514
2015-10-28 16:45:47.774795 , 514
2015-10-28 16:45:47.774875 , 513
2015-10-28 16:45:47.774938 , 514
2015-10-28 16:45:47.791086 , 515
2015-10-28 16:45:47.791184 , 516
2015-10-28 16:45:47.791302 , 514
2015-10-28 16:45:47.806821 , 514
2015-10-28 16:45:47.806906 , 518
2015-10-28 16:45:47.806974 , 512
2015-10-28 16:45:47.822749 , 493
2015-10-28 16:45:47.822837 , 460
2015-10-28 16:45:47.822904 , 454
2015-10-28 16:45:47.838718 , 454
2015-10-28 16:45:47.838791 , 446
2015-10-28 16:45:47.838836 , 440
2015-10-28 16:45:47.854787 , 396
2015-10-28 16:45:47.854881 , 350
2015-10-28 16:45:47.854952 , 404
2015-10-28 16:45:47.870798 , 480
2015-10-28 16:45:47.870954 , 524
2015-10-28 16:45:47.871031 , 539
2015-10-28 16:45:47.886691 , 541
2015-10-28 16:45:47.886782 , 541
2015-10-28 16:45:47.886849 , 543
2015-10-28 16:45:47.902705 , 544
2015-10-28 16:45:47.902797 , 545
2015-10-28 16:45:47.902865 , 546
2015-10-28 16:45:47.918710 , 548
2015-10-28 16:45:47.918800 , 549
2015-10-28 16:45:47.918870 , 551
2015-10-28 16:45:47.934676 , 553
2015-10-28 16:45:47.934795 , 553
2015-10-28 16:45:47.934874 , 554
2015-10-28 16:45:47.950678 , 556
2015-10-28 16:45:47.950784 , 559
2015-10-28 16:45:47.950853 , 558
2015-10-28 16:45:47.966762 , 557
2015-10-28 16:45:47.966858 , 559
2015-10-28 16:45:47.966923 , 560
2015-10-28 16:45:47.966989 , 561
2015-10-28 16:45:47.982814 , 562
2015-10-28 16:45:47.982879 , 565
2015-10-28 16:45:47.982917 , 569
2015-10-28 16:45:47.998787 , 570
2015-10-28 16:45:47.998840 , 571
2015-10-28 16:45:47.998898 , 572
2015-10-28 16:45:48.014819 , 573
2015-10-28 16:45:48.014902 , 575
2015-10-28 16:45:48.014972 , 579
2015-10-28 16:45:48.030831 , 585
2015-10-28 16:45:48.030884 , 591
2015-10-28 16:45:48.030919 , 595
2015-10-28 16:45:48.046718 , 598
2015-10-28 16:45:48.046774 , 605
2015-10-28 16:45:48.046812 , 611
2015-10-28 16:45:48.063142 , 614
2015-10-28 16:45:48.063230 , 618
2015-10-28 16:45:48.063341 , 622
2015-10-28 16:45:48.078727 , 623
2015-10-28 16:45:48.078822 , 622
2015-10-28 16:45:48.078870 , 620
2015-10-28 16:45:48.094715 , 618
2015-10-28 16:45:48.094802 , 613
2015-10-28 16:45:48.094845 , 606
2015-10-28 16:45:48.110906 , 598
2015-10-28 16:45:48.110995 , 586
2015-10-28 16:45:48.111059 , 568
2015-10-28 16:45:48.126724 , 550
2015-10-28 16:45:48.126819 , 535
2015-10-28 16:45:48.126892 , 521
2015-10-28 16:45:48.142694 , 508
2015-10-28 16:45:48.142790 , 498
2015-10-28 16:45:48.142831 , 490
2015-10-28 16:45:48.158766 , 482
2015-10-28 16:45:48.158861 , 477
2015-10-28 16:45:48.159068 , 475
2015-10-28 16:45:48.175852 , 475
2015-10-28 16:45:48.175954 , 475
2015-10-28 16:45:48.176026 , 475
2015-10-28 16:45:48.190664 , 476
2015-10-28 16:45:48.190964 , 477
2015-10-28 16:45:48.191073 , 477
2015-10-28 16:45:48.206613 , 478
2015-10-28 16:45:48.206678 , 481
2015-10-28 16:45:48.206808 , 482
2015-10-28 16:45:48.223110 , 482
2015-10-28 16:45:48.223214 , 484
2015-10-28 16:45:48.223292 , 486
2015-10-28 16:45:48.223356 , 489
2015-10-28 16:45:48.238714 , 489
2015-10-28 16:45:48.238806 , 489
2015-10-28 16:45:48.238881 , 491
2015-10-28 16:45:48.254713 , 492
2015-10-28 16:45:48.254811 , 492
2015-10-28 16:45:48.254859 , 492
2015-10-28 16:45:48.270821 , 494
2015-10-28 16:45:48.270910 , 494
2015-10-28 16:45:48.270973 , 493
2015-10-28 16:45:48.286698 , 494
2015-10-28 16:45:48.286938 , 495
2015-10-28 16:45:48.287028 , 496
2015-10-28 16:45:48.302619 , 496
2015-10-28 16:45:48.302672 , 495
2015-10-28 16:45:48.302708 , 496
2015-10-28 16:45:48.318628 , 496
2015-10-28 16:45:48.318682 , 494
2015-10-28 16:45:48.318718 , 495
2015-10-28 16:45:48.334702 , 497
2015-10-28 16:45:48.334777 , 496
2015-10-28 16:45:48.334815 , 494
2015-10-28 16:45:48.350719 , 495
2015-10-28 16:45:48.350816 , 495
2015-10-28 16:45:48.350885 , 495
2015-10-28 16:45:48.366686 , 495
2015-10-28 16:45:48.366798 , 495
2015-10-28 16:45:48.366878 , 494
2015-10-28 16:45:48.382614 , 494
2015-10-28 16:45:48.382720 , 494
2015-10-28 16:45:48.382794 , 496
2015-10-28 16:45:48.398592 , 497
2015-10-28 16:45:48.398648 , 496
2015-10-28 16:45:48.398685 , 495
2015-10-28 16:45:48.415333 , 497
2015-10-28 16:45:48.415430 , 498
2015-10-28 16:45:48.415504 , 499
2015-10-28 16:45:48.430572 , 499
2015-10-28 16:45:48.430679 , 500
2015-10-28 16:45:48.430750 , 501
2015-10-28 16:45:48.446558 , 501
2015-10-28 16:45:48.446625 , 502
2015-10-28 16:45:48.446662 , 504
2015-10-28 16:45:48.462582 , 505
2015-10-28 16:45:48.462663 , 505
2015-10-28 16:45:48.462708 , 507
2015-10-28 16:45:48.462750 , 505
2015-10-28 16:45:48.478610 , 504
2015-10-28 16:45:48.478672 , 505
2015-10-28 16:45:48.478716 , 508
2015-10-28 16:45:48.494660 , 509
2015-10-28 16:45:48.494770 , 508
2015-10-28 16:45:48.494895 , 508
2015-10-28 16:45:48.510590 , 509
2015-10-28 16:45:48.510642 , 509
2015-10-28 16:45:48.510678 , 507
2015-10-28 16:45:48.526645 , 510
2015-10-28 16:45:48.526733 , 516
2015-10-28 16:45:48.526771 , 521
2015-10-28 16:45:48.542559 , 519
2015-10-28 16:45:48.542612 , 519
2015-10-28 16:45:48.542648 , 525
2015-10-28 16:45:48.558658 , 530
2015-10-28 16:45:48.558834 , 525
2015-10-28 16:45:48.558962 , 524
2015-10-28 16:45:48.574549 , 527
2015-10-28 16:45:48.574606 , 527
2015-10-28 16:45:48.574643 , 522
2015-10-28 16:45:48.590562 , 519
2015-10-28 16:45:48.590618 , 518
2015-10-28 16:45:48.590664 , 518
2015-10-28 16:45:48.606534 , 516
2015-10-28 16:45:48.606626 , 516
2015-10-28 16:45:48.606665 , 515
2015-10-28 16:45:48.622541 , 513
2015-10-28 16:45:48.622603 , 512
2015-10-28 16:45:48.622640 , 515
2015-10-28 16:45:48.642112 , 515
2015-10-28 16:45:48.642202 , 514
2015-10-28 16:45:48.642267 , 516
2015-10-28 16:45:48.654557 , 519
2015-10-28 16:45:48.654649 , 514
2015-10-28 16:45:48.654762 , 492
2015-10-28 16:45:48.670515 , 478
2015-10-28 16:45:48.670579 , 477
2015-10-28 16:45:48.670616 , 469
2015-10-28 16:45:48.686516 , 464
2015-10-28 16:45:48.686581 , 441
2015-10-28 16:45:48.686618 , 380
2015-10-28 16:45:48.702499 , 373
2015-10-28 16:45:48.702592 , 440
2015-10-28 16:45:48.702662 , 497
2015-10-28 16:45:48.702730 , 523
2015-10-28 16:45:48.718514 , 535
2015-10-28 16:45:48.718566 , 537
2015-10-28 16:45:48.718602 , 539
2015-10-28 16:45:48.734502 , 540
2015-10-28 16:45:48.734555 , 542
2015-10-28 16:45:48.734591 , 544
2015-10-28 16:45:48.750520 , 546
2015-10-28 16:45:48.750574 , 548
2015-10-28 16:45:48.750610 , 549
2015-10-28 16:45:48.766486 , 550
2015-10-28 16:45:48.766539 , 551
2015-10-28 16:45:48.766576 , 550
2015-10-28 16:45:48.782657 , 549
2015-10-28 16:45:48.782747 , 550
2015-10-28 16:45:48.782822 , 551
2015-10-28 16:45:48.798617 , 552
2015-10-28 16:45:48.798702 , 552
2015-10-28 16:45:48.798768 , 555
2015-10-28 16:45:48.814509 , 558
2015-10-28 16:45:48.814597 , 559
2015-10-28 16:45:48.814665 , 558
2015-10-28 16:45:48.831027 , 560
2015-10-28 16:45:48.831113 , 561
2015-10-28 16:45:48.831180 , 562
2015-10-28 16:45:48.846461 , 564
2015-10-28 16:45:48.846516 , 569
2015-10-28 16:45:48.846552 , 573
2015-10-28 16:45:48.862500 , 574
2015-10-28 16:45:48.862640 , 577
2015-10-28 16:45:48.862715 , 581
2015-10-28 16:45:48.878469 , 586
2015-10-28 16:45:48.878560 , 592
2015-10-28 16:45:48.878628 , 598
2015-10-28 16:45:48.894526 , 605
2015-10-28 16:45:48.894588 , 609
2015-10-28 16:45:48.894713 , 613
2015-10-28 16:45:48.910388 , 615
2015-10-28 16:45:48.910455 , 618
2015-10-28 16:45:48.910492 , 621
2015-10-28 16:45:48.926522 , 621
2015-10-28 16:45:48.926859 , 619
2015-10-28 16:45:48.927202 , 617
2015-10-28 16:45:48.942417 , 611
2015-10-28 16:45:48.942485 , 602
2015-10-28 16:45:48.942526 , 591
2015-10-28 16:45:48.958443 , 577
2015-10-28 16:45:48.958941 , 559
2015-10-28 16:45:48.959054 , 543
2015-10-28 16:45:48.959142 , 529
2015-10-28 16:45:48.974516 , 515
2015-10-28 16:45:48.974616 , 503
2015-10-28 16:45:48.974766 , 496
2015-10-28 16:45:48.990542 , 490
2015-10-28 16:45:48.990634 , 484
2015-10-28 16:45:48.990827 , 478
2015-10-28 16:45:49.006555 , 475
2015-10-28 16:45:49.007713 , 475
2015-10-28 16:45:49.008044 , 475
2015-10-28 16:45:49.022590 , 475
2015-10-28 16:45:49.022693 , 477
2015-10-28 16:45:49.023228 , 478
2015-10-28 16:45:49.038842 , 479
2015-10-28 16:45:49.039199 , 480
2015-10-28 16:45:49.039368 , 482
2015-10-28 16:45:49.054725 , 484
2015-10-28 16:45:49.054883 , 486
2015-10-28 16:45:49.055245 , 487
2015-10-28 16:45:49.070866 , 488
2015-10-28 16:45:49.070957 , 488
2015-10-28 16:45:49.071022 , 491
2015-10-28 16:45:49.086469 , 493
2015-10-28 16:45:49.086585 , 494
2015-10-28 16:45:49.086686 , 495
2015-10-28 16:45:49.102427 , 494
2015-10-28 16:45:49.102490 , 493
2015-10-28 16:45:49.102534 , 495
2015-10-28 16:45:49.118473 , 495
2015-10-28 16:45:49.118566 , 495
2015-10-28 16:45:49.118631 , 495
2015-10-28 16:45:49.134584 , 495
2015-10-28 16:45:49.134735 , 496
2015-10-28 16:45:49.134828 , 495
2015-10-28 16:45:49.150589 , 495
2015-10-28 16:45:49.150682 , 494
2015-10-28 16:45:49.150752 , 495
2015-10-28 16:45:49.166354 , 495
2015-10-28 16:45:49.166431 , 496
2015-10-28 16:45:49.166475 , 497
2015-10-28 16:45:49.182335 , 497
2015-10-28 16:45:49.182440 , 496
2015-10-28 16:45:49.182509 , 497
2015-10-28 16:45:49.198454 , 497
2015-10-28 16:45:49.198561 , 496
2015-10-28 16:45:49.198626 , 495
2015-10-28 16:45:49.198687 , 495
2015-10-28 16:45:49.214658 , 496
2015-10-28 16:45:49.214748 , 496
2015-10-28 16:45:49.214812 , 496
2015-10-28 16:45:49.230458 , 498
2015-10-28 16:45:49.230545 , 499
2015-10-28 16:45:49.230660 , 499
2015-10-28 16:45:49.246396 , 499
2015-10-28 16:45:49.246507 , 499
2015-10-28 16:45:49.246591 , 498
2015-10-28 16:45:49.262419 , 498
2015-10-28 16:45:49.262501 , 498
2015-10-28 16:45:49.262540 , 499
2015-10-28 16:45:49.278490 , 498
2015-10-28 16:45:49.278583 , 497
2015-10-28 16:45:49.278647 , 498
2015-10-28 16:45:49.294438 , 499
2015-10-28 16:45:49.294554 , 497
2015-10-28 16:45:49.294619 , 497
2015-10-28 16:45:49.310543 , 498
2015-10-28 16:45:49.310632 , 498
2015-10-28 16:45:49.310697 , 499
2015-10-28 16:45:49.326577 , 501
2015-10-28 16:45:49.326993 , 507
2015-10-28 16:45:49.327429 , 507
2015-10-28 16:45:49.342365 , 506
2015-10-28 16:45:49.342463 , 508
2015-10-28 16:45:49.343680 , 515
2015-10-28 16:45:49.358647 , 511
2015-10-28 16:45:49.358807 , 506
2015-10-28 16:45:49.358924 , 509
2015-10-28 16:45:49.374320 , 513
2015-10-28 16:45:49.374399 , 509
2015-10-28 16:45:49.374437 , 502
2015-10-28 16:45:49.390286 , 497
2015-10-28 16:45:49.390352 , 497
2015-10-28 16:45:49.390397 , 495
2015-10-28 16:45:49.406320 , 490
2015-10-28 16:45:49.406432 , 490
2015-10-28 16:45:49.406498 , 492
2015-10-28 16:45:49.422233 , 491
2015-10-28 16:45:49.422339 , 490
2015-10-28 16:45:49.422412 , 490
2015-10-28 16:45:49.438240 , 491
2015-10-28 16:45:49.438309 , 492
2015-10-28 16:45:49.438346 , 493
2015-10-28 16:45:49.438382 , 487
2015-10-28 16:45:49.454395 , 463
2015-10-28 16:45:49.454484 , 435
2015-10-28 16:45:49.454548 , 427
2015-10-28 16:45:49.470294 , 421
2015-10-28 16:45:49.470391 , 414
2015-10-28 16:45:49.470499 , 396
2015-10-28 16:45:49.486327 , 341
2015-10-28 16:45:49.486423 , 326
2015-10-28 16:45:49.486496 , 396
2015-10-28 16:45:49.502267 , 461
2015-10-28 16:45:49.502355 , 495
2015-10-28 16:45:49.502440 , 509
2015-10-28 16:45:49.518277 , 511
2015-10-28 16:45:49.518399 , 511
2015-10-28 16:45:49.518578 , 512
2015-10-28 16:45:49.534292 , 514
2015-10-28 16:45:49.534388 , 514
2015-10-28 16:45:49.534464 , 514
2015-10-28 16:45:49.550374 , 516
2015-10-28 16:45:49.550467 , 519
2015-10-28 16:45:49.550541 , 519
2015-10-28 16:45:49.566255 , 520
2015-10-28 16:45:49.566333 , 521
2015-10-28 16:45:49.566391 , 523
2015-10-28 16:45:49.582462 , 522
2015-10-28 16:45:49.582553 , 523
2015-10-28 16:45:49.582617 , 525
2015-10-28 16:45:49.598378 , 526
2015-10-28 16:45:49.598448 , 525
2015-10-28 16:45:49.598495 , 525
2015-10-28 16:45:49.614309 , 527
2015-10-28 16:45:49.614458 , 528
2015-10-28 16:45:49.614538 , 527
2015-10-28 16:45:49.631792 , 528
2015-10-28 16:45:49.634447 , 530
2015-10-28 16:45:49.634838 , 532
2015-10-28 16:45:49.646198 , 532
2015-10-28 16:45:49.646291 , 535
2015-10-28 16:45:49.646349 , 541
2015-10-28 16:45:49.662213 , 544
2015-10-28 16:45:49.662319 , 546
2015-10-28 16:45:49.662384 , 552
2015-10-28 16:45:49.678213 , 560
2015-10-28 16:45:49.678305 , 566
2015-10-28 16:45:49.678350 , 572
2015-10-28 16:45:49.678440 , 577
2015-10-28 16:45:49.694313 , 584
2015-10-28 16:45:49.694404 , 588
2015-10-28 16:45:49.694467 , 592
2015-10-28 16:45:49.710350 , 597
2015-10-28 16:45:49.710453 , 599
2015-10-28 16:45:49.710530 , 598
2015-10-28 16:45:49.726419 , 596
2015-10-28 16:45:49.726672 , 593
2015-10-28 16:45:49.726763 , 586
2015-10-28 16:45:49.742343 , 575
2015-10-28 16:45:49.742401 , 562
2015-10-28 16:45:49.742439 , 549
2015-10-28 16:45:49.758195 , 534
2015-10-28 16:45:49.758249 , 518
2015-10-28 16:45:49.758286 , 504
2015-10-28 16:45:49.774407 , 496
2015-10-28 16:45:49.774498 , 488
2015-10-28 16:45:49.774537 , 480
2015-10-28 16:45:49.790234 , 474
2015-10-28 16:45:49.790302 , 472
2015-10-28 16:45:49.790348 , 470
2015-10-28 16:45:49.806250 , 468
2015-10-28 16:45:49.806339 , 469
2015-10-28 16:45:49.806403 , 471
2015-10-28 16:45:49.822170 , 472
2015-10-28 16:45:49.822234 , 474
2015-10-28 16:45:49.822279 , 479
2015-10-28 16:45:49.838207 , 484
2015-10-28 16:45:49.838275 , 487
2015-10-28 16:45:49.838319 , 491
2015-10-28 16:45:49.854527 , 496
2015-10-28 16:45:49.854673 , 499
2015-10-28 16:45:49.854745 , 500
2015-10-28 16:45:49.870450 , 503
2015-10-28 16:45:49.870547 , 506
2015-10-28 16:45:49.870612 , 506
2015-10-28 16:45:49.886308 , 505
2015-10-28 16:45:49.886416 , 506
2015-10-28 16:45:49.886481 , 508
2015-10-28 16:45:49.902269 , 507
2015-10-28 16:45:49.902378 , 506
2015-10-28 16:45:49.902443 , 506
2015-10-28 16:45:49.918265 , 506
2015-10-28 16:45:49.918375 , 505
2015-10-28 16:45:49.918440 , 504
2015-10-28 16:45:49.934429 , 504
2015-10-28 16:45:49.934536 , 503
2015-10-28 16:45:49.934601 , 501
2015-10-28 16:45:49.934662 , 497
2015-10-28 16:45:49.950248 , 496
2015-10-28 16:45:49.950311 , 495
2015-10-28 16:45:49.950356 , 493
2015-10-28 16:45:49.967557 , 490
2015-10-28 16:45:49.967921 , 491
2015-10-28 16:45:49.968013 , 491
2015-10-28 16:45:49.982357 , 490
2015-10-28 16:45:49.982471 , 489
2015-10-28 16:45:49.982545 , 491
2015-10-28 16:45:49.998802 , 490
2015-10-28 16:45:49.998893 , 489
2015-10-28 16:45:49.998960 , 488
2015-10-28 16:45:50.014496 , 489
2015-10-28 16:45:50.014583 , 487
2015-10-28 16:45:50.014713 , 485
2015-10-28 16:45:50.031177 , 486
2015-10-28 16:45:50.031264 , 487
2015-10-28 16:45:50.031332 , 486
2015-10-28 16:45:50.046176 , 484
2015-10-28 16:45:50.046239 , 484
2015-10-28 16:45:50.046283 , 484
2015-10-28 16:45:50.062173 , 483
2015-10-28 16:45:50.062226 , 481
2015-10-28 16:45:50.062263 , 346
2015-10-28 16:45:50.078228 , 188
2015-10-28 16:45:50.078305 , 204
2015-10-28 16:45:50.078357 , 282
2015-10-28 16:45:50.094206 , 338
2015-10-28 16:45:50.094282 , 363
2015-10-28 16:45:50.094336 , 373
2015-10-28 16:45:50.110263 , 380
2015-10-28 16:45:50.110357 , 391
2015-10-28 16:45:50.110422 , 400
2015-10-28 16:45:50.126316 , 408
2015-10-28 16:45:50.126410 , 418
2015-10-28 16:45:50.126474 , 425
2015-10-28 16:45:50.142302 , 426
2015-10-28 16:45:50.142410 , 432
2015-10-28 16:45:50.142475 , 443
2015-10-28 16:45:50.158317 , 447
2015-10-28 16:45:50.158424 , 443
2015-10-28 16:45:50.158489 , 446
2015-10-28 16:45:50.174385 , 453
2015-10-28 16:45:50.174538 , 455
2015-10-28 16:45:50.174604 , 452
2015-10-28 16:45:50.174666 , 449
2015-10-28 16:45:50.190497 , 451
2015-10-28 16:45:50.190587 , 453
2015-10-28 16:45:50.190651 , 452
2015-10-28 16:45:50.206354 , 454
2015-10-28 16:45:50.206443 , 457
2015-10-28 16:45:50.206506 , 459
2015-10-28 16:45:50.222226 , 460
2015-10-28 16:45:50.222357 , 461
2015-10-28 16:45:50.222541 , 464
2015-10-28 16:45:50.238247 , 467
2015-10-28 16:45:50.238337 , 468
2015-10-28 16:45:50.238401 , 466
2015-10-28 16:45:50.254354 , 451
2015-10-28 16:45:50.254444 , 413
2015-10-28 16:45:50.254507 , 403
2015-10-28 16:45:50.270168 , 409
2015-10-28 16:45:50.270256 , 406
2015-10-28 16:45:50.270321 , 404
2015-10-28 16:45:50.286240 , 365
2015-10-28 16:45:50.286343 , 318
2015-10-28 16:45:50.286409 , 372
2015-10-28 16:45:50.302457 , 454
2015-10-28 16:45:50.302564 , 500
2015-10-28 16:45:50.302629 , 517
2015-10-28 16:45:50.318448 , 519
2015-10-28 16:45:50.318537 , 517
2015-10-28 16:45:50.318639 , 519
2015-10-28 16:45:50.334318 , 523
2015-10-28 16:45:50.334411 , 525
2015-10-28 16:45:50.334475 , 526
2015-10-28 16:45:50.350451 , 529
2015-10-28 16:45:50.350548 , 532
2015-10-28 16:45:50.350613 , 535
2015-10-28 16:45:50.366151 , 535
2015-10-28 16:45:50.366245 , 537
2015-10-28 16:45:50.366311 , 541
2015-10-28 16:45:50.382290 , 543
2015-10-28 16:45:50.382440 , 545
2015-10-28 16:45:50.382506 , 546
2015-10-28 16:45:50.398285 , 548
2015-10-28 16:45:50.398437 , 550
2015-10-28 16:45:50.398503 , 551
2015-10-28 16:45:50.414109 , 553
2015-10-28 16:45:50.414284 , 556
2015-10-28 16:45:50.414396 , 558
2015-10-28 16:45:50.414462 , 559
2015-10-28 16:45:50.430138 , 561
2015-10-28 16:45:50.430226 , 564
2015-10-28 16:45:50.430291 , 566
2015-10-28 16:45:50.446354 , 569
2015-10-28 16:45:50.446547 , 574
2015-10-28 16:45:50.446628 , 579
2015-10-28 16:45:50.462257 , 581
2015-10-28 16:45:50.462345 , 585
2015-10-28 16:45:50.462409 , 592
2015-10-28 16:45:50.478360 , 597
2015-10-28 16:45:50.478452 , 603
2015-10-28 16:45:50.478516 , 609
2015-10-28 16:45:50.494343 , 616
2015-10-28 16:45:50.494488 , 621
2015-10-28 16:45:50.494555 , 623
2015-10-28 16:45:50.510274 , 625
2015-10-28 16:45:50.510363 , 627
2015-10-28 16:45:50.510426 , 627
2015-10-28 16:45:50.526343 , 624
2015-10-28 16:45:50.526463 , 620
2015-10-28 16:45:50.526527 , 613
2015-10-28 16:45:50.542209 , 605
2015-10-28 16:45:50.542300 , 591
2015-10-28 16:45:50.542364 , 575
2015-10-28 16:45:50.558254 , 558
2015-10-28 16:45:50.558343 , 541
2015-10-28 16:45:50.558408 , 525
2015-10-28 16:45:50.574258 , 513
2015-10-28 16:45:50.574412 , 502
2015-10-28 16:45:50.574535 , 492
2015-10-28 16:45:50.590213 , 485
2015-10-28 16:45:50.590305 , 484
2015-10-28 16:45:50.590369 , 482
2015-10-28 16:45:50.606245 , 478
2015-10-28 16:45:50.606367 , 476
2015-10-28 16:45:50.606431 , 478
2015-10-28 16:45:50.622050 , 479
2015-10-28 16:45:50.622172 , 479
2015-10-28 16:45:50.622239 , 481
2015-10-28 16:45:50.638085 , 484
2015-10-28 16:45:50.638193 , 485
2015-10-28 16:45:50.638258 , 485
2015-10-28 16:45:50.654176 , 487
2015-10-28 16:45:50.654286 , 491
2015-10-28 16:45:50.654351 , 492
2015-10-28 16:45:50.654413 , 494
2015-10-28 16:45:50.670200 , 497
2015-10-28 16:45:50.670290 , 499
2015-10-28 16:45:50.670355 , 499
2015-10-28 16:45:50.686359 , 498
2015-10-28 16:45:50.686473 , 500
2015-10-28 16:45:50.686538 , 502
2015-10-28 16:45:50.702264 , 502
2015-10-28 16:45:50.702419 , 502
2015-10-28 16:45:50.702495 , 504
2015-10-28 16:45:50.718098 , 506
2015-10-28 16:45:50.718187 , 504
2015-10-28 16:45:50.718251 , 504
2015-10-28 16:45:50.734288 , 505
2015-10-28 16:45:50.734398 , 505
2015-10-28 16:45:50.734461 , 505
2015-10-28 16:45:50.749994 , 505
2015-10-28 16:45:50.750083 , 507
2015-10-28 16:45:50.750146 , 507
2015-10-28 16:45:50.766251 , 506
2015-10-28 16:45:50.766341 , 507
2015-10-28 16:45:50.766405 , 507
2015-10-28 16:45:50.782226 , 508
2015-10-28 16:45:50.782350 , 508
2015-10-28 16:45:50.782414 , 509
2015-10-28 16:45:50.798230 , 511
2015-10-28 16:45:50.798319 , 511
2015-10-28 16:45:50.798383 , 510
2015-10-28 16:45:50.814176 , 512
2015-10-28 16:45:50.814269 , 514
2015-10-28 16:45:50.814334 , 514
2015-10-28 16:45:50.829899 , 516
2015-10-28 16:45:50.829963 , 518
2015-10-28 16:45:50.830008 , 519
2015-10-28 16:45:50.846111 , 518
2015-10-28 16:45:50.846207 , 518
2015-10-28 16:45:50.846272 , 520
2015-10-28 16:45:50.862226 , 522
2015-10-28 16:45:50.862358 , 521
2015-10-28 16:45:50.862423 , 522
2015-10-28 16:45:50.878086 , 522
2015-10-28 16:45:50.878194 , 523
2015-10-28 16:45:50.878260 , 522
2015-10-28 16:45:50.894148 , 521
2015-10-28 16:45:50.894301 , 523
2015-10-28 16:45:50.894366 , 522
2015-10-28 16:45:50.910237 , 520
2015-10-28 16:45:50.910352 , 523
2015-10-28 16:45:50.910417 , 528
2015-10-28 16:45:50.910479 , 533
2015-10-28 16:45:50.926078 , 534
2015-10-28 16:45:50.926167 , 532
2015-10-28 16:45:50.926232 , 537
2015-10-28 16:45:50.942211 , 543
2015-10-28 16:45:50.942299 , 540
2015-10-28 16:45:50.942363 , 538
2015-10-28 16:45:50.958011 , 542
2015-10-28 16:45:50.958099 , 541
2015-10-28 16:45:50.958163 , 536
2015-10-28 16:45:50.974206 , 534
2015-10-28 16:45:50.974320 , 531
2015-10-28 16:45:50.974384 , 528
2015-10-28 16:45:50.989926 , 526
2015-10-28 16:45:50.989989 , 524
2015-10-28 16:45:50.990032 , 525
2015-10-28 16:45:51.005873 , 525
2015-10-28 16:45:51.005928 , 526
2015-10-28 16:45:51.005965 , 528
2015-10-28 16:45:51.021912 , 527
2015-10-28 16:45:51.021966 , 526
2015-10-28 16:45:51.022002 , 529
2015-10-28 16:45:51.037921 , 532
2015-10-28 16:45:51.037976 , 525
2015-10-28 16:45:51.038011 , 506
2015-10-28 16:45:51.053954 , 485
2015-10-28 16:45:51.054050 , 486
2015-10-28 16:45:51.054145 , 486
2015-10-28 16:45:51.069893 , 481
2015-10-28 16:45:51.069959 , 467
2015-10-28 16:45:51.070004 , 411
2015-10-28 16:45:51.086073 , 380
2015-10-28 16:45:51.086166 , 440
2015-10-28 16:45:51.086231 , 508
2015-10-28 16:45:51.101861 , 545
2015-10-28 16:45:51.101963 , 557
2015-10-28 16:45:51.102029 , 558
2015-10-28 16:45:51.118071 , 560
2015-10-28 16:45:51.118194 , 562
2015-10-28 16:45:51.118334 , 562
2015-10-28 16:45:51.133992 , 562
2015-10-28 16:45:51.134100 , 566
2015-10-28 16:45:51.134165 , 567
2015-10-28 16:45:51.150099 , 568
2015-10-28 16:45:51.150247 , 571
2015-10-28 16:45:51.150313 , 573
2015-10-28 16:45:51.150376 , 572
2015-10-28 16:45:51.166021 , 572
2015-10-28 16:45:51.166131 , 573
2015-10-28 16:45:51.166258 , 574
2015-10-28 16:45:51.182141 , 575
2015-10-28 16:45:51.182232 , 575
2015-10-28 16:45:51.182296 , 576
2015-10-28 16:45:51.198131 , 578
2015-10-28 16:45:51.198221 , 579
2015-10-28 16:45:51.198286 , 581
2015-10-28 16:45:51.214015 , 584
2015-10-28 16:45:51.214104 , 586
2015-10-28 16:45:51.214169 , 586
2015-10-28 16:45:51.230089 , 588
2015-10-28 16:45:51.230178 , 593
2015-10-28 16:45:51.230242 , 596
2015-10-28 16:45:51.246091 , 598
2015-10-28 16:45:51.246203 , 601
2015-10-28 16:45:51.246267 , 607
2015-10-28 16:45:51.261975 , 612
2015-10-28 16:45:51.262068 , 618
2015-10-28 16:45:51.262131 , 623
2015-10-28 16:45:51.277820 , 628
2015-10-28 16:45:51.277909 , 632
2015-10-28 16:45:51.278053 , 637
2015-10-28 16:45:51.294336 , 642
2015-10-28 16:45:51.294544 , 644
2015-10-28 16:45:51.294683 , 644
2015-10-28 16:45:51.309995 , 645
