timestamp, value
datetime, int
T,
2015-10-27 20:19:49.923851, 483
2015-10-27 20:19:49.939091, 484
2015-10-27 20:19:49.939245, 488
2015-10-27 20:19:49.939369, 493
2015-10-27 20:19:49.954977, 492
2015-10-27 20:19:49.955057, 494
2015-10-27 20:19:49.955117, 495
2015-10-27 20:19:49.971216, 494
2015-10-27 20:19:49.971331, 493
2015-10-27 20:19:49.971454, 493
2015-10-27 20:19:49.987122, 494
2015-10-27 20:19:49.987211, 495
2015-10-27 20:19:49.987276, 493
2015-10-27 20:19:50.003177, 485
2015-10-27 20:19:50.003293, 484
2015-10-27 20:19:50.003358, 489
2015-10-27 20:19:50.019211, 494
2015-10-27 20:19:50.019433, 501
2015-10-27 20:19:50.019514, 500
2015-10-27 20:19:50.035112, 499
2015-10-27 20:19:50.035202, 505
2015-10-27 20:19:50.035266, 511
2015-10-27 20:19:50.051080, 511
2015-10-27 20:19:50.051170, 505
2015-10-27 20:19:50.051235, 507
2015-10-27 20:19:50.067019, 518
2015-10-27 20:19:50.067112, 520
2015-10-27 20:19:50.067327, 520
2015-10-27 20:19:50.083003, 516
2015-10-27 20:19:50.083096, 514
2015-10-27 20:19:50.083161, 517
2015-10-27 20:19:50.098898, 520
2015-10-27 20:19:50.098990, 519
2015-10-27 20:19:50.099056, 512
2015-10-27 20:19:50.115012, 510
2015-10-27 20:19:50.115118, 508
2015-10-27 20:19:50.115183, 505
2015-10-27 20:19:50.131042, 501
2015-10-27 20:19:50.131150, 503
2015-10-27 20:19:50.131614, 504
2015-10-27 20:19:50.146992, 504
2015-10-27 20:19:50.147100, 502
2015-10-27 20:19:50.147165, 505
2015-10-27 20:19:50.147228, 509
2015-10-27 20:19:50.163116, 512
2015-10-27 20:19:50.163207, 513
2015-10-27 20:19:50.163273, 512
2015-10-27 20:19:50.179135, 515
2015-10-27 20:19:50.179294, 517
2015-10-27 20:19:50.179414, 520
2015-10-27 20:19:50.194915, 524
2015-10-27 20:19:50.195003, 525
2015-10-27 20:19:50.195068, 510
2015-10-27 20:19:50.210986, 502
2015-10-27 20:19:50.211076, 518
2015-10-27 20:19:50.211142, 557
2015-10-27 20:19:50.227032, 637
2015-10-27 20:19:50.227197, 735
2015-10-27 20:19:50.227275, 815
2015-10-27 20:19:50.243190, 887
2015-10-27 20:19:50.243280, 874
2015-10-27 20:19:50.243344, 753
2015-10-27 20:19:50.259069, 558
2015-10-27 20:19:50.259211, 422
2015-10-27 20:19:50.259320, 423
2015-10-27 20:19:50.275002, 481
2015-10-27 20:19:50.275095, 520
2015-10-27 20:19:50.275159, 528
2015-10-27 20:19:50.291023, 525
2015-10-27 20:19:50.291114, 527
2015-10-27 20:19:50.291178, 529
2015-10-27 20:19:50.307014, 532
2015-10-27 20:19:50.307107, 531
2015-10-27 20:19:50.307171, 529
2015-10-27 20:19:50.323060, 527
2015-10-27 20:19:50.323197, 529
2015-10-27 20:19:50.323266, 535
2015-10-27 20:19:50.338978, 537
2015-10-27 20:19:50.339071, 535
2015-10-27 20:19:50.339135, 531
2015-10-27 20:19:50.354994, 527
2015-10-27 20:19:50.355101, 530
2015-10-27 20:19:50.355168, 532
2015-10-27 20:19:50.371024, 529
2015-10-27 20:19:50.371191, 527
2015-10-27 20:19:50.371319, 524
2015-10-27 20:19:50.386944, 529
2015-10-27 20:19:50.387053, 534
2015-10-27 20:19:50.387120, 536
2015-10-27 20:19:50.387183, 537
2015-10-27 20:19:50.403086, 536
2015-10-27 20:19:50.403175, 534
2015-10-27 20:19:50.403239, 540
2015-10-27 20:19:50.418951, 547
2015-10-27 20:19:50.419040, 542
2015-10-27 20:19:50.419105, 540
2015-10-27 20:19:50.435074, 553
2015-10-27 20:19:50.435163, 566
2015-10-27 20:19:50.435228, 565
2015-10-27 20:19:50.450967, 566
2015-10-27 20:19:50.451056, 576
2015-10-27 20:19:50.451120, 587
2015-10-27 20:19:50.466961, 593
2015-10-27 20:19:50.467051, 598
2015-10-27 20:19:50.467115, 605
2015-10-27 20:19:50.483034, 610
2015-10-27 20:19:50.483129, 611
2015-10-27 20:19:50.483194, 606
2015-10-27 20:19:50.498987, 606
2015-10-27 20:19:50.499078, 603
2015-10-27 20:19:50.499142, 599
2015-10-27 20:19:50.514775, 593
2015-10-27 20:19:50.514925, 585
2015-10-27 20:19:50.515014, 570
2015-10-27 20:19:50.530825, 556
2015-10-27 20:19:50.530879, 545
2015-10-27 20:19:50.530915, 529
2015-10-27 20:19:50.547354, 509
2015-10-27 20:19:50.547447, 495
2015-10-27 20:19:50.547513, 484
2015-10-27 20:19:50.562920, 474
2015-10-27 20:19:50.563075, 463
2015-10-27 20:19:50.563144, 452
2015-10-27 20:19:50.578743, 445
2015-10-27 20:19:50.578836, 440
2015-10-27 20:19:50.578901, 437
2015-10-27 20:19:50.594807, 435
2015-10-27 20:19:50.594971, 435
2015-10-27 20:19:50.595037, 432
2015-10-27 20:19:50.610942, 430
2015-10-27 20:19:50.611050, 441
2015-10-27 20:19:50.611137, 444
2015-10-27 20:19:50.626896, 443
2015-10-27 20:19:50.627003, 442
2015-10-27 20:19:50.627069, 439
2015-10-27 20:19:50.642802, 440
2015-10-27 20:19:50.642910, 439
2015-10-27 20:19:50.642976, 435
2015-10-27 20:19:50.643038, 434
2015-10-27 20:19:50.659087, 444
2015-10-27 20:19:50.659178, 451
2015-10-27 20:19:50.659244, 452
2015-10-27 20:19:50.674929, 449
2015-10-27 20:19:50.675018, 449
2015-10-27 20:19:50.675082, 452
2015-10-27 20:19:50.690903, 456
2015-10-27 20:19:50.690991, 460
2015-10-27 20:19:50.691056, 459
2015-10-27 20:19:50.707009, 454
2015-10-27 20:19:50.707123, 452
2015-10-27 20:19:50.707188, 456
2015-10-27 20:19:50.723067, 456
2015-10-27 20:19:50.723157, 456
2015-10-27 20:19:50.723221, 456
2015-10-27 20:19:50.739014, 457
2015-10-27 20:19:50.739103, 458
2015-10-27 20:19:50.739168, 455
2015-10-27 20:19:50.754927, 456
2015-10-27 20:19:50.755018, 461
2015-10-27 20:19:50.755083, 461
2015-10-27 20:19:50.770735, 459
2015-10-27 20:19:50.770824, 457
2015-10-27 20:19:50.770890, 455
2015-10-27 20:19:50.786735, 447
2015-10-27 20:19:50.787081, 445
2015-10-27 20:19:50.787201, 451
2015-10-27 20:19:50.802838, 456
2015-10-27 20:19:50.802930, 453
2015-10-27 20:19:50.802997, 457
2015-10-27 20:19:50.818766, 460
2015-10-27 20:19:50.818859, 462
2015-10-27 20:19:50.818924, 460
2015-10-27 20:19:50.834841, 460
2015-10-27 20:19:50.834935, 463
2015-10-27 20:19:50.835001, 462
2015-10-27 20:19:50.850824, 460
2015-10-27 20:19:50.850932, 460
2015-10-27 20:19:50.850999, 462
2015-10-27 20:19:50.866619, 460
2015-10-27 20:19:50.866730, 453
2015-10-27 20:19:50.866874, 446
2015-10-27 20:19:50.882612, 446
2015-10-27 20:19:50.882719, 452
2015-10-27 20:19:50.882786, 452
2015-10-27 20:19:50.882848, 450
2015-10-27 20:19:50.898696, 450
2015-10-27 20:19:50.898867, 451
2015-10-27 20:19:50.898987, 456
2015-10-27 20:19:50.914667, 461
2015-10-27 20:19:50.914756, 461
2015-10-27 20:19:50.914821, 458
2015-10-27 20:19:50.930768, 459
2015-10-27 20:19:50.930860, 464
2015-10-27 20:19:50.930926, 460
2015-10-27 20:19:50.946723, 460
2015-10-27 20:19:50.946878, 459
2015-10-27 20:19:50.946949, 458
2015-10-27 20:19:50.962752, 458
2015-10-27 20:19:50.962873, 458
2015-10-27 20:19:50.963051, 461
2015-10-27 20:19:50.978577, 462
2015-10-27 20:19:50.978651, 460
2015-10-27 20:19:50.978702, 462
2015-10-27 20:19:50.994725, 468
2015-10-27 20:19:50.994815, 476
2015-10-27 20:19:50.994880, 480
2015-10-27 20:19:51.010632, 481
2015-10-27 20:19:51.010723, 484
2015-10-27 20:19:51.010788, 481
2015-10-27 20:19:51.026684, 475
2015-10-27 20:19:51.026945, 475
2015-10-27 20:19:51.027147, 480
2015-10-27 20:19:51.042747, 487
2015-10-27 20:19:51.042841, 493
2015-10-27 20:19:51.042906, 496
2015-10-27 20:19:51.058657, 495
2015-10-27 20:19:51.058727, 490
2015-10-27 20:19:51.058774, 488
2015-10-27 20:19:51.074741, 497
2015-10-27 20:19:51.074834, 500
2015-10-27 20:19:51.074900, 494
2015-10-27 20:19:51.090568, 484
2015-10-27 20:19:51.090680, 480
2015-10-27 20:19:51.090748, 480
2015-10-27 20:19:51.106734, 478
2015-10-27 20:19:51.106892, 477
2015-10-27 20:19:51.107053, 475
2015-10-27 20:19:51.122741, 479
2015-10-27 20:19:51.122888, 477
2015-10-27 20:19:51.122955, 468
2015-10-27 20:19:51.123018, 473
2015-10-27 20:19:51.138589, 478
2015-10-27 20:19:51.138778, 475
2015-10-27 20:19:51.138860, 469
2015-10-27 20:19:51.154753, 474
2015-10-27 20:19:51.154841, 481
2015-10-27 20:19:51.154905, 486
2015-10-27 20:19:51.170707, 488
2015-10-27 20:19:51.170796, 490
2015-10-27 20:19:51.170862, 487
2015-10-27 20:19:51.186720, 474
2015-10-27 20:19:51.186859, 467
2015-10-27 20:19:51.186935, 489
2015-10-27 20:19:51.202624, 540
2015-10-27 20:19:51.202726, 626
2015-10-27 20:19:51.202793, 713
2015-10-27 20:19:51.218545, 784
2015-10-27 20:19:51.218635, 841
2015-10-27 20:19:51.218700, 815
2015-10-27 20:19:51.234549, 682
2015-10-27 20:19:51.234640, 486
2015-10-27 20:19:51.234707, 379
2015-10-27 20:19:51.250743, 401
2015-10-27 20:19:51.250836, 456
2015-10-27 20:19:51.250901, 486
2015-10-27 20:19:51.266720, 497
2015-10-27 20:19:51.266811, 497
2015-10-27 20:19:51.266876, 497
2015-10-27 20:19:51.282537, 502
2015-10-27 20:19:51.282630, 506
2015-10-27 20:19:51.282695, 505
2015-10-27 20:19:51.298523, 504
2015-10-27 20:19:51.298615, 499
2015-10-27 20:19:51.298681, 504
2015-10-27 20:19:51.314507, 509
2015-10-27 20:19:51.314601, 511
2015-10-27 20:19:51.314666, 516
2015-10-27 20:19:51.330494, 516
2015-10-27 20:19:51.330602, 512
2015-10-27 20:19:51.330667, 511
2015-10-27 20:19:51.346699, 519
2015-10-27 20:19:51.346884, 527
2015-10-27 20:19:51.347011, 528
2015-10-27 20:19:51.362469, 528
2015-10-27 20:19:51.362577, 528
2015-10-27 20:19:51.362643, 530
2015-10-27 20:19:51.362706, 530
2015-10-27 20:19:51.378652, 530
2015-10-27 20:19:51.378740, 534
2015-10-27 20:19:51.378804, 542
2015-10-27 20:19:51.394650, 543
2015-10-27 20:19:51.394738, 548
2015-10-27 20:19:51.394802, 555
2015-10-27 20:19:51.410688, 559
2015-10-27 20:19:51.410777, 564
2015-10-27 20:19:51.410842, 569
2015-10-27 20:19:51.426822, 577
2015-10-27 20:19:51.426938, 580
2015-10-27 20:19:51.427003, 589
2015-10-27 20:19:51.442773, 603
2015-10-27 20:19:51.442863, 612
2015-10-27 20:19:51.442928, 612
2015-10-27 20:19:51.458535, 619
2015-10-27 20:19:51.458699, 626
2015-10-27 20:19:51.458774, 634
2015-10-27 20:19:51.474651, 635
2015-10-27 20:19:51.474744, 632
2015-10-27 20:19:51.474810, 627
2015-10-27 20:19:51.490463, 619
2015-10-27 20:19:51.490554, 613
2015-10-27 20:19:51.490618, 609
2015-10-27 20:19:51.506602, 601
2015-10-27 20:19:51.506730, 587
2015-10-27 20:19:51.506844, 571
2015-10-27 20:19:51.522585, 559
2015-10-27 20:19:51.522706, 549
2015-10-27 20:19:51.522772, 538
2015-10-27 20:19:51.538507, 526
2015-10-27 20:19:51.538600, 516
2015-10-27 20:19:51.538665, 501
2015-10-27 20:19:51.554415, 488
2015-10-27 20:19:51.554508, 486
2015-10-27 20:19:51.554572, 489
2015-10-27 20:19:51.570553, 484
2015-10-27 20:19:51.570957, 475
2015-10-27 20:19:51.571151, 470
2015-10-27 20:19:51.586602, 473
2015-10-27 20:19:51.586805, 477
2015-10-27 20:19:51.586887, 481
2015-10-27 20:19:51.602547, 481
2015-10-27 20:19:51.602739, 478
2015-10-27 20:19:51.602815, 469
2015-10-27 20:19:51.602879, 464
2015-10-27 20:19:51.618544, 475
2015-10-27 20:19:51.618643, 479
2015-10-27 20:19:51.618722, 478
2015-10-27 20:19:51.634514, 481
2015-10-27 20:19:51.634704, 488
2015-10-27 20:19:51.634782, 492
2015-10-27 20:19:51.650596, 491
2015-10-27 20:19:51.650691, 491
2015-10-27 20:19:51.650756, 493
2015-10-27 20:19:51.666616, 494
2015-10-27 20:19:51.666776, 497
2015-10-27 20:19:51.666900, 501
2015-10-27 20:19:51.682436, 501
2015-10-27 20:19:51.682720, 499
2015-10-27 20:19:51.682968, 500
2015-10-27 20:19:51.698821, 497
2015-10-27 20:19:51.698912, 493
2015-10-27 20:19:51.698986, 492
2015-10-27 20:19:51.714689, 494
2015-10-27 20:19:51.714909, 493
2015-10-27 20:19:51.714990, 497
2015-10-27 20:19:51.730356, 500
2015-10-27 20:19:51.730466, 502
2015-10-27 20:19:51.730550, 502
2015-10-27 20:19:51.746361, 500
2015-10-27 20:19:51.746481, 497
2015-10-27 20:19:51.746565, 497
2015-10-27 20:19:51.762403, 498
2015-10-27 20:19:51.762487, 495
2015-10-27 20:19:51.762526, 490
2015-10-27 20:19:51.778332, 488
2015-10-27 20:19:51.778424, 487
2015-10-27 20:19:51.778497, 485
2015-10-27 20:19:51.794290, 487
2015-10-27 20:19:51.794345, 492
2015-10-27 20:19:51.794382, 493
2015-10-27 20:19:51.810527, 491
2015-10-27 20:19:51.810638, 488
2015-10-27 20:19:51.810703, 483
2015-10-27 20:19:51.826606, 484
2015-10-27 20:19:51.826765, 486
2015-10-27 20:19:51.826870, 488
2015-10-27 20:19:51.842733, 488
2015-10-27 20:19:51.842862, 488
2015-10-27 20:19:51.842929, 487
2015-10-27 20:19:51.858331, 486
2015-10-27 20:19:51.858405, 485
2015-10-27 20:19:51.858450, 487
2015-10-27 20:19:51.858493, 489
2015-10-27 20:19:51.874445, 493
2015-10-27 20:19:51.874534, 497
2015-10-27 20:19:51.874611, 499
2015-10-27 20:19:51.890700, 499
2015-10-27 20:19:51.890789, 501
2015-10-27 20:19:51.890854, 499
2015-10-27 20:19:51.906599, 495
2015-10-27 20:19:51.906688, 501
2015-10-27 20:19:51.906752, 503
2015-10-27 20:19:51.922598, 506
2015-10-27 20:19:51.922686, 504
2015-10-27 20:19:51.922751, 503
2015-10-27 20:19:51.938746, 505
2015-10-27 20:19:51.938855, 506
2015-10-27 20:19:51.938922, 508
2015-10-27 20:19:51.954434, 512
2015-10-27 20:19:51.954524, 513
2015-10-27 20:19:51.954571, 509
2015-10-27 20:19:51.970323, 507
2015-10-27 20:19:51.970379, 508
2015-10-27 20:19:51.970415, 516
2015-10-27 20:19:51.986352, 518
2015-10-27 20:19:51.986404, 518
2015-10-27 20:19:51.986440, 514
2015-10-27 20:19:52.002572, 511
2015-10-27 20:19:52.002812, 510
2015-10-27 20:19:52.002932, 513
2015-10-27 20:19:52.018396, 513
2015-10-27 20:19:52.018489, 507
2015-10-27 20:19:52.018555, 511
2015-10-27 20:19:52.034451, 514
2015-10-27 20:19:52.034542, 513
2015-10-27 20:19:52.034606, 513
2015-10-27 20:19:52.050546, 511
2015-10-27 20:19:52.050733, 509
2015-10-27 20:19:52.050809, 509
2015-10-27 20:19:52.066373, 506
2015-10-27 20:19:52.066482, 498
2015-10-27 20:19:52.066572, 491
2015-10-27 20:19:52.082384, 494
2015-10-27 20:19:52.082529, 496
2015-10-27 20:19:52.082706, 493
2015-10-27 20:19:52.098444, 489
2015-10-27 20:19:52.098564, 490
2015-10-27 20:19:52.098697, 497
2015-10-27 20:19:52.098767, 498
2015-10-27 20:19:52.114495, 496
2015-10-27 20:19:52.114722, 494
2015-10-27 20:19:52.114801, 490
2015-10-27 20:19:52.130494, 491
2015-10-27 20:19:52.130584, 495
2015-10-27 20:19:52.130661, 498
2015-10-27 20:19:52.146615, 493
2015-10-27 20:19:52.146705, 491
2015-10-27 20:19:52.146904, 493
2015-10-27 20:19:52.162403, 493
2015-10-27 20:19:52.162492, 487
2015-10-27 20:19:52.162569, 471
2015-10-27 20:19:52.178517, 474
2015-10-27 20:19:52.178934, 503
2015-10-27 20:19:52.179038, 565
2015-10-27 20:19:52.194518, 665
2015-10-27 20:19:52.194609, 759
2015-10-27 20:19:52.194830, 834
2015-10-27 20:19:52.210402, 876
2015-10-27 20:19:52.210646, 812
2015-10-27 20:19:52.210910, 645
2015-10-27 20:19:52.226519, 459
2015-10-27 20:19:52.226636, 388
2015-10-27 20:19:52.226790, 423
2015-10-27 20:19:52.242500, 472
2015-10-27 20:19:52.242590, 491
2015-10-27 20:19:52.242800, 493
2015-10-27 20:19:52.258501, 492
2015-10-27 20:19:52.258594, 496
2015-10-27 20:19:52.258659, 497
2015-10-27 20:19:52.274473, 498
2015-10-27 20:19:52.274567, 502
2015-10-27 20:19:52.274643, 504
2015-10-27 20:19:52.290524, 503
2015-10-27 20:19:52.290618, 507
2015-10-27 20:19:52.290860, 511
2015-10-27 20:19:52.306315, 510
2015-10-27 20:19:52.306492, 506
2015-10-27 20:19:52.306718, 507
2015-10-27 20:19:52.322529, 510
2015-10-27 20:19:52.322641, 509
2015-10-27 20:19:52.323036, 510
2015-10-27 20:19:52.338444, 514
2015-10-27 20:19:52.338552, 515
2015-10-27 20:19:52.338619, 515
2015-10-27 20:19:52.338706, 513
2015-10-27 20:19:52.354553, 517
2015-10-27 20:19:52.354646, 518
2015-10-27 20:19:52.354711, 520
2015-10-27 20:19:52.370640, 526
2015-10-27 20:19:52.370851, 535
2015-10-27 20:19:52.371080, 540
2015-10-27 20:19:52.386491, 543
2015-10-27 20:19:52.386581, 547
2015-10-27 20:19:52.386657, 553
2015-10-27 20:19:52.402614, 561
2015-10-27 20:19:52.402874, 564
2015-10-27 20:19:52.403146, 568
2015-10-27 20:19:52.418563, 575
2015-10-27 20:19:52.418665, 583
2015-10-27 20:19:52.418831, 584
2015-10-27 20:19:52.434468, 587
2015-10-27 20:19:52.434560, 599
2015-10-27 20:19:52.434625, 607
2015-10-27 20:19:52.450641, 609
2015-10-27 20:19:52.450828, 611
2015-10-27 20:19:52.451123, 610
2015-10-27 20:19:52.466424, 605
2015-10-27 20:19:52.466514, 599
2015-10-27 20:19:52.466579, 594
2015-10-27 20:19:52.482546, 589
2015-10-27 20:19:52.482758, 589
2015-10-27 20:19:52.482958, 578
2015-10-27 20:19:52.498395, 562
2015-10-27 20:19:52.498514, 550
2015-10-27 20:19:52.498597, 537
2015-10-27 20:19:52.514207, 523
2015-10-27 20:19:52.514300, 509
2015-10-27 20:19:52.514378, 497
2015-10-27 20:19:52.530398, 479
2015-10-27 20:19:52.530488, 462
2015-10-27 20:19:52.530554, 462
2015-10-27 20:19:52.546429, 463
2015-10-27 20:19:52.546537, 461
2015-10-27 20:19:52.546608, 456
2015-10-27 20:19:52.562424, 450
2015-10-27 20:19:52.562531, 449
2015-10-27 20:19:52.562597, 446
2015-10-27 20:19:52.578326, 443
2015-10-27 20:19:52.578434, 441
2015-10-27 20:19:52.578500, 440
2015-10-27 20:19:52.578563, 441
2015-10-27 20:19:52.594407, 442
2015-10-27 20:19:52.594496, 440
2015-10-27 20:19:52.594562, 439
2015-10-27 20:19:52.610536, 438
2015-10-27 20:19:52.610625, 441
2015-10-27 20:19:52.610692, 444
2015-10-27 20:19:52.626481, 446
2015-10-27 20:19:52.626570, 448
2015-10-27 20:19:52.626634, 453
2015-10-27 20:19:52.642386, 453
2015-10-27 20:19:52.642476, 450
2015-10-27 20:19:52.642542, 454
2015-10-27 20:19:52.658811, 459
2015-10-27 20:19:52.658904, 459
2015-10-27 20:19:52.658968, 455
2015-10-27 20:19:52.674231, 458
2015-10-27 20:19:52.674310, 463
2015-10-27 20:19:52.674406, 463
2015-10-27 20:19:52.690448, 459
2015-10-27 20:19:52.690563, 459
2015-10-27 20:19:52.690628, 462
2015-10-27 20:19:52.706311, 462
2015-10-27 20:19:52.706400, 467
2015-10-27 20:19:52.706464, 468
2015-10-27 20:19:52.722279, 468
2015-10-27 20:19:52.722369, 472
2015-10-27 20:19:52.722433, 474
2015-10-27 20:19:52.738179, 475
2015-10-27 20:19:52.738274, 476
2015-10-27 20:19:52.738339, 477
2015-10-27 20:19:52.754350, 475
2015-10-27 20:19:52.754479, 471
2015-10-27 20:19:52.754546, 471
2015-10-27 20:19:52.770268, 472
2015-10-27 20:19:52.770401, 480
2015-10-27 20:19:52.770470, 486
2015-10-27 20:19:52.786273, 487
2015-10-27 20:19:52.786366, 485
2015-10-27 20:19:52.786432, 481
2015-10-27 20:19:52.802126, 479
2015-10-27 20:19:52.802234, 476
2015-10-27 20:19:52.802300, 479
2015-10-27 20:19:52.818368, 484
2015-10-27 20:19:52.818514, 486
2015-10-27 20:19:52.818580, 488
2015-10-27 20:19:52.834164, 486
2015-10-27 20:19:52.834270, 480
2015-10-27 20:19:52.834337, 481
2015-10-27 20:19:52.834399, 487
2015-10-27 20:19:52.850196, 489
2015-10-27 20:19:52.850285, 489
2015-10-27 20:19:52.850351, 490
2015-10-27 20:19:52.866395, 490
2015-10-27 20:19:52.866486, 488
2015-10-27 20:19:52.866550, 490
2015-10-27 20:19:52.882304, 495
2015-10-27 20:19:52.882394, 494
2015-10-27 20:19:52.882459, 491
2015-10-27 20:19:52.898124, 489
2015-10-27 20:19:52.898218, 487
2015-10-27 20:19:52.898294, 485
2015-10-27 20:19:52.914245, 490
2015-10-27 20:19:52.914334, 499
2015-10-27 20:19:52.914399, 501
2015-10-27 20:19:52.930078, 499
2015-10-27 20:19:52.930165, 492
2015-10-27 20:19:52.930343, 492
2015-10-27 20:19:52.946327, 499
2015-10-27 20:19:52.946503, 502
2015-10-27 20:19:52.946699, 512
2015-10-27 20:19:52.962396, 515
2015-10-27 20:19:52.962540, 513
2015-10-27 20:19:52.962678, 509
2015-10-27 20:19:52.978362, 506
2015-10-27 20:19:52.978453, 505
2015-10-27 20:19:52.978639, 506
2015-10-27 20:19:52.994025, 508
2015-10-27 20:19:52.994118, 510
2015-10-27 20:19:52.994193, 510
2015-10-27 20:19:53.010248, 504
2015-10-27 20:19:53.010368, 503
2015-10-27 20:19:53.010433, 508
2015-10-27 20:19:53.026291, 510
2015-10-27 20:19:53.026384, 508
2015-10-27 20:19:53.026449, 508
2015-10-27 20:19:53.042191, 512
2015-10-27 20:19:53.042303, 518
2015-10-27 20:19:53.042370, 520
2015-10-27 20:19:53.057962, 521
2015-10-27 20:19:53.058069, 519
2015-10-27 20:19:53.058136, 514
2015-10-27 20:19:53.074204, 510
2015-10-27 20:19:53.074362, 506
2015-10-27 20:19:53.074529, 505
2015-10-27 20:19:53.074595, 503
2015-10-27 20:19:53.090332, 497
2015-10-27 20:19:53.090463, 495
2015-10-27 20:19:53.090530, 499
2015-10-27 20:19:53.106026, 499
2015-10-27 20:19:53.106169, 502
2015-10-27 20:19:53.106388, 503
2015-10-27 20:19:53.122317, 506
2015-10-27 20:19:53.122410, 505
2015-10-27 20:19:53.122475, 504
2015-10-27 20:19:53.138075, 514
2015-10-27 20:19:53.138163, 520
2015-10-27 20:19:53.138229, 522
2015-10-27 20:19:53.154288, 518
2015-10-27 20:19:53.154393, 514
2015-10-27 20:19:53.154458, 517
2015-10-27 20:19:53.170258, 519
2015-10-27 20:19:53.170374, 520
2015-10-27 20:19:53.170438, 519
2015-10-27 20:19:53.185961, 509
2015-10-27 20:19:53.186050, 494
2015-10-27 20:19:53.186114, 489
2015-10-27 20:19:53.202415, 511
2015-10-27 20:19:53.202627, 549
2015-10-27 20:19:53.202767, 640
2015-10-27 20:19:53.218167, 750
2015-10-27 20:19:53.218288, 837
2015-10-27 20:19:53.218353, 895
2015-10-27 20:19:53.234129, 876
2015-10-27 20:19:53.234223, 749
2015-10-27 20:19:53.234288, 549
2015-10-27 20:19:53.250137, 417
2015-10-27 20:19:53.250231, 425
2015-10-27 20:19:53.250297, 479
2015-10-27 20:19:53.266482, 511
2015-10-27 20:19:53.266589, 521
2015-10-27 20:19:53.266655, 522
2015-10-27 20:19:53.282166, 519
2015-10-27 20:19:53.282278, 517
2015-10-27 20:19:53.282346, 511
2015-10-27 20:19:53.298009, 511
2015-10-27 20:19:53.298084, 519
2015-10-27 20:19:53.298129, 523
2015-10-27 20:19:53.314069, 521
2015-10-27 20:19:53.314178, 523
2015-10-27 20:19:53.314245, 523
2015-10-27 20:19:53.314308, 525
2015-10-27 20:19:53.330134, 523
2015-10-27 20:19:53.330223, 518
2015-10-27 20:19:53.330287, 518
2015-10-27 20:19:53.346245, 515
2015-10-27 20:19:53.346337, 518
2015-10-27 20:19:53.346401, 521
2015-10-27 20:19:53.362147, 523
2015-10-27 20:19:53.362235, 517
2015-10-27 20:19:53.362300, 518
2015-10-27 20:19:53.378233, 526
2015-10-27 20:19:53.378334, 530
2015-10-27 20:19:53.378407, 529
2015-10-27 20:19:53.394116, 531
2015-10-27 20:19:53.394204, 539
2015-10-27 20:19:53.394268, 545
2015-10-27 20:19:53.410122, 551
2015-10-27 20:19:53.410211, 556
2015-10-27 20:19:53.410275, 555
2015-10-27 20:19:53.426047, 553
2015-10-27 20:19:53.426137, 560
2015-10-27 20:19:53.426201, 573
2015-10-27 20:19:53.442062, 580
2015-10-27 20:19:53.442152, 580
2015-10-27 20:19:53.442217, 586
2015-10-27 20:19:53.457889, 598
2015-10-27 20:19:53.457985, 608
2015-10-27 20:19:53.458050, 610
2015-10-27 20:19:53.474027, 613
2015-10-27 20:19:53.474120, 616
2015-10-27 20:19:53.474185, 617
2015-10-27 20:19:53.490033, 609
2015-10-27 20:19:53.490200, 597
2015-10-27 20:19:53.490271, 596
2015-10-27 20:19:53.505959, 590
2015-10-27 20:19:53.506053, 578
2015-10-27 20:19:53.506118, 568
2015-10-27 20:19:53.521850, 555
2015-10-27 20:19:53.522019, 538
2015-10-27 20:19:53.522085, 522
2015-10-27 20:19:53.538078, 510
2015-10-27 20:19:53.538238, 495
2015-10-27 20:19:53.538304, 481
2015-10-27 20:19:53.553969, 467
2015-10-27 20:19:53.554075, 449
2015-10-27 20:19:53.554140, 451
2015-10-27 20:19:53.554203, 454
2015-10-27 20:19:53.570051, 455
2015-10-27 20:19:53.570140, 455
2015-10-27 20:19:53.570205, 453
2015-10-27 20:19:53.586157, 448
2015-10-27 20:19:53.586247, 446
2015-10-27 20:19:53.586312, 447
2015-10-27 20:19:53.602145, 454
2015-10-27 20:19:53.602237, 455
2015-10-27 20:19:53.602302, 452
2015-10-27 20:19:53.617993, 450
2015-10-27 20:19:53.618083, 447
2015-10-27 20:19:53.618147, 446
2015-10-27 20:19:53.634093, 446
2015-10-27 20:19:53.634208, 447
2015-10-27 20:19:53.634273, 447
2015-10-27 20:19:53.649865, 453
2015-10-27 20:19:53.649956, 451
2015-10-27 20:19:53.650021, 446
2015-10-27 20:19:53.665976, 444
2015-10-27 20:19:53.666069, 446
2015-10-27 20:19:53.666133, 454
2015-10-27 20:19:53.681953, 457
2015-10-27 20:19:53.682045, 453
2015-10-27 20:19:53.682110, 450
2015-10-27 20:19:53.697884, 447
2015-10-27 20:19:53.697973, 448
2015-10-27 20:19:53.698089, 454
2015-10-27 20:19:53.713964, 457
2015-10-27 20:19:53.714055, 454
2015-10-27 20:19:53.714132, 458
2015-10-27 20:19:53.730092, 465
2015-10-27 20:19:53.730218, 467
2015-10-27 20:19:53.730285, 468
2015-10-27 20:19:53.745838, 466
2015-10-27 20:19:53.745927, 463
2015-10-27 20:19:53.745993, 462
2015-10-27 20:19:53.761987, 462
2015-10-27 20:19:53.762081, 466
2015-10-27 20:19:53.762146, 471
2015-10-27 20:19:53.777780, 473
2015-10-27 20:19:53.777887, 473
2015-10-27 20:19:53.777952, 481
2015-10-27 20:19:53.793780, 482
2015-10-27 20:19:53.793910, 484
2015-10-27 20:19:53.794001, 485
2015-10-27 20:19:53.809999, 481
2015-10-27 20:19:53.810153, 476
2015-10-27 20:19:53.810220, 475
2015-10-27 20:19:53.810284, 477
2015-10-27 20:19:53.825964, 476
2015-10-27 20:19:53.826054, 478
2015-10-27 20:19:53.826118, 484
2015-10-27 20:19:53.842061, 488
2015-10-27 20:19:53.842151, 488
2015-10-27 20:19:53.842216, 486
2015-10-27 20:19:53.857962, 485
2015-10-27 20:19:53.858178, 484
2015-10-27 20:19:53.858260, 482
2015-10-27 20:19:53.874095, 481
2015-10-27 20:19:53.874210, 481
2015-10-27 20:19:53.874274, 481
2015-10-27 20:19:53.889863, 485
2015-10-27 20:19:53.890011, 491
2015-10-27 20:19:53.890086, 493
2015-10-27 20:19:53.905885, 487
2015-10-27 20:19:53.905973, 481
2015-10-27 20:19:53.906039, 480
2015-10-27 20:19:53.922169, 484
2015-10-27 20:19:53.922260, 486
2015-10-27 20:19:53.922325, 484
2015-10-27 20:19:53.937996, 484
2015-10-27 20:19:53.938087, 489
2015-10-27 20:19:53.938152, 484
2015-10-27 20:19:53.953854, 486
2015-10-27 20:19:53.953945, 487
2015-10-27 20:19:53.954010, 491
2015-10-27 20:19:53.969951, 489
2015-10-27 20:19:53.970043, 490
2015-10-27 20:19:53.970109, 494
2015-10-27 20:19:53.985999, 492
2015-10-27 20:19:53.986097, 492
2015-10-27 20:19:53.986163, 492
2015-10-27 20:19:54.001819, 493
2015-10-27 20:19:54.001914, 495
2015-10-27 20:19:54.001979, 492
2015-10-27 20:19:54.017797, 494
2015-10-27 20:19:54.017903, 499
2015-10-27 20:19:54.017968, 500
2015-10-27 20:19:54.033760, 496
2015-10-27 20:19:54.033867, 498
2015-10-27 20:19:54.033943, 506
2015-10-27 20:19:54.049882, 509
2015-10-27 20:19:54.050005, 513
2015-10-27 20:19:54.050072, 515
2015-10-27 20:19:54.050135, 511
2015-10-27 20:19:54.065832, 512
2015-10-27 20:19:54.065922, 515
2015-10-27 20:19:54.065987, 520
2015-10-27 20:19:54.081940, 520
2015-10-27 20:19:54.082029, 521
2015-10-27 20:19:54.082093, 520
2015-10-27 20:19:54.098124, 521
2015-10-27 20:19:54.098250, 518
2015-10-27 20:19:54.098325, 514
2015-10-27 20:19:54.113943, 505
2015-10-27 20:19:54.114032, 500
2015-10-27 20:19:54.114117, 493
2015-10-27 20:19:54.130052, 492
2015-10-27 20:19:54.130142, 494
2015-10-27 20:19:54.130207, 497
2015-10-27 20:19:54.145780, 498
2015-10-27 20:19:54.145870, 495
2015-10-27 20:19:54.145934, 492
2015-10-27 20:19:54.161920, 494
2015-10-27 20:19:54.162011, 498
2015-10-27 20:19:54.162075, 501
2015-10-27 20:19:54.177740, 506
2015-10-27 20:19:54.177832, 508
2015-10-27 20:19:54.177897, 504
2015-10-27 20:19:54.193939, 502
2015-10-27 20:19:54.194029, 501
2015-10-27 20:19:54.194094, 501
2015-10-27 20:19:54.209863, 503
2015-10-27 20:19:54.209956, 502
2015-10-27 20:19:54.210021, 488
2015-10-27 20:19:54.225863, 482
2015-10-27 20:19:54.225955, 499
2015-10-27 20:19:54.226021, 532
2015-10-27 20:19:54.241736, 604
2015-10-27 20:19:54.242094, 713
2015-10-27 20:19:54.242166, 806
2015-10-27 20:19:54.257934, 880
2015-10-27 20:19:54.258136, 895
2015-10-27 20:19:54.258208, 788
2015-10-27 20:19:54.273970, 588
2015-10-27 20:19:54.274141, 426
2015-10-27 20:19:54.274268, 412
2015-10-27 20:19:54.289908, 465
2015-10-27 20:19:54.290017, 503
2015-10-27 20:19:54.290083, 517
2015-10-27 20:19:54.290145, 514
2015-10-27 20:19:54.305862, 515
2015-10-27 20:19:54.305951, 516
2015-10-27 20:19:54.306015, 517
2015-10-27 20:19:54.321774, 520
2015-10-27 20:19:54.321865, 524
2015-10-27 20:19:54.321931, 525
2015-10-27 20:19:54.337743, 520
2015-10-27 20:19:54.337834, 519
2015-10-27 20:19:54.337901, 519
2015-10-27 20:19:54.353729, 521
2015-10-27 20:19:54.353819, 522
2015-10-27 20:19:54.353884, 517
2015-10-27 20:19:54.369749, 514
2015-10-27 20:19:54.369839, 516
2015-10-27 20:19:54.369904, 523
2015-10-27 20:19:54.385873, 523
2015-10-27 20:19:54.385960, 523
2015-10-27 20:19:54.386025, 526
2015-10-27 20:19:54.401679, 527
2015-10-27 20:19:54.401769, 529
2015-10-27 20:19:54.401834, 529
2015-10-27 20:19:54.417785, 528
2015-10-27 20:19:54.417875, 528
2015-10-27 20:19:54.417940, 531
2015-10-27 20:19:54.433841, 533
2015-10-27 20:19:54.433943, 533
2015-10-27 20:19:54.434007, 541
2015-10-27 20:19:54.449887, 549
2015-10-27 20:19:54.449978, 548
2015-10-27 20:19:54.450046, 563
2015-10-27 20:19:54.465674, 581
2015-10-27 20:19:54.465766, 590
2015-10-27 20:19:54.465832, 596
2015-10-27 20:19:54.481822, 602
2015-10-27 20:19:54.481916, 609
2015-10-27 20:19:54.481983, 620
2015-10-27 20:19:54.497594, 627
2015-10-27 20:19:54.497718, 628
2015-10-27 20:19:54.497802, 624
2015-10-27 20:19:54.513641, 621
2015-10-27 20:19:54.513745, 617
2015-10-27 20:19:54.513811, 611
2015-10-27 20:19:54.529664, 601
2015-10-27 20:19:54.529773, 594
2015-10-27 20:19:54.529839, 586
2015-10-27 20:19:54.529901, 578
2015-10-27 20:19:54.545654, 562
2015-10-27 20:19:54.545745, 548
2015-10-27 20:19:54.545810, 532
2015-10-27 20:19:54.561885, 523
2015-10-27 20:19:54.561976, 513
2015-10-27 20:19:54.562042, 502
2015-10-27 20:19:54.577688, 490
2015-10-27 20:19:54.577777, 481
2015-10-27 20:19:54.577842, 471
2015-10-27 20:19:54.593757, 467
2015-10-27 20:19:54.593847, 465
2015-10-27 20:19:54.593911, 462
2015-10-27 20:19:54.609957, 463
2015-10-27 20:19:54.610047, 467
2015-10-27 20:19:54.610112, 473
2015-10-27 20:19:54.625599, 475
2015-10-27 20:19:54.625662, 474
2015-10-27 20:19:54.625706, 478
2015-10-27 20:19:54.641880, 484
2015-10-27 20:19:54.641989, 486
2015-10-27 20:19:54.642056, 486
2015-10-27 20:19:54.657759, 486
2015-10-27 20:19:54.657879, 487
2015-10-27 20:19:54.657945, 487
2015-10-27 20:19:54.673744, 484
2015-10-27 20:19:54.673835, 487
2015-10-27 20:19:54.673900, 490
2015-10-27 20:19:54.689743, 490
2015-10-27 20:19:54.689832, 493
2015-10-27 20:19:54.689896, 494
2015-10-27 20:19:54.705746, 499
2015-10-27 20:19:54.705852, 504
2015-10-27 20:19:54.705917, 509
2015-10-27 20:19:54.721593, 509
2015-10-27 20:19:54.721725, 505
2015-10-27 20:19:54.721794, 503
2015-10-27 20:19:54.737522, 506
2015-10-27 20:19:54.737577, 512
2015-10-27 20:19:54.737614, 513
2015-10-27 20:19:54.753458, 509
2015-10-27 20:19:54.753523, 508
2015-10-27 20:19:54.753561, 505
2015-10-27 20:19:54.769506, 502
2015-10-27 20:19:54.769573, 505
2015-10-27 20:19:54.769610, 509
2015-10-27 20:19:54.785475, 507
2015-10-27 20:19:54.785538, 507
2015-10-27 20:19:54.785576, 508
2015-10-27 20:19:54.785611, 506
2015-10-27 20:19:54.801498, 497
2015-10-27 20:19:54.801554, 497
2015-10-27 20:19:54.801591, 503
2015-10-27 20:19:54.817550, 509
2015-10-27 20:19:54.817644, 506
2015-10-27 20:19:54.817746, 501
2015-10-27 20:19:54.833741, 504
2015-10-27 20:19:54.833834, 507
2015-10-27 20:19:54.833899, 509
2015-10-27 20:19:54.849741, 505
2015-10-27 20:19:54.849834, 506
2015-10-27 20:19:54.849899, 513
2015-10-27 20:19:54.865808, 512
2015-10-27 20:19:54.865903, 504
2015-10-27 20:19:54.865968, 503
2015-10-27 20:19:54.881507, 510
2015-10-27 20:19:54.881564, 511
2015-10-27 20:19:54.881600, 509
2015-10-27 20:19:54.897534, 509
2015-10-27 20:19:54.897627, 507
2015-10-27 20:19:54.897692, 504
2015-10-27 20:19:54.913594, 503
2015-10-27 20:19:54.913686, 509
2015-10-27 20:19:54.913751, 512
2015-10-27 20:19:54.929650, 512
2015-10-27 20:19:54.929740, 513
2015-10-27 20:19:54.929804, 516
2015-10-27 20:19:54.945713, 516
2015-10-27 20:19:54.945804, 513
2015-10-27 20:19:54.945869, 514
2015-10-27 20:19:54.961493, 515
2015-10-27 20:19:54.961635, 510
2015-10-27 20:19:54.961704, 510
2015-10-27 20:19:54.977387, 510
2015-10-27 20:19:54.977441, 507
2015-10-27 20:19:54.977478, 503
2015-10-27 20:19:54.993384, 504
2015-10-27 20:19:54.993486, 502
2015-10-27 20:19:54.993556, 505
2015-10-27 20:19:55.009392, 506
2015-10-27 20:19:55.009497, 509
2015-10-27 20:19:55.009562, 507
2015-10-27 20:19:55.025455, 505
2015-10-27 20:19:55.025565, 503
2015-10-27 20:19:55.025647, 503
2015-10-27 20:19:55.025711, 508
2015-10-27 20:19:55.041547, 518
2015-10-27 20:19:55.041636, 520
2015-10-27 20:19:55.041804, 518
2015-10-27 20:19:55.057456, 518
2015-10-27 20:19:55.057546, 517
2015-10-27 20:19:55.057611, 520
2015-10-27 20:19:55.073469, 516
2015-10-27 20:19:55.073558, 515
2015-10-27 20:19:55.073622, 515
2015-10-27 20:19:55.089483, 517
2015-10-27 20:19:55.089573, 517
2015-10-27 20:19:55.089639, 516
2015-10-27 20:19:55.105468, 515
2015-10-27 20:19:55.105557, 510
2015-10-27 20:19:55.105622, 509
2015-10-27 20:19:55.121471, 511
2015-10-27 20:19:55.121561, 499
2015-10-27 20:19:55.121626, 493
2015-10-27 20:19:55.137485, 499
2015-10-27 20:19:55.137592, 499
2015-10-27 20:19:55.137658, 494
2015-10-27 20:19:55.153404, 485
2015-10-27 20:19:55.153496, 482
2015-10-27 20:19:55.153561, 487
2015-10-27 20:19:55.169581, 490
2015-10-27 20:19:55.169671, 492
2015-10-27 20:19:55.169736, 493
2015-10-27 20:19:55.185452, 492
2015-10-27 20:19:55.185660, 488
2015-10-27 20:19:55.185783, 486
2015-10-27 20:19:55.201450, 487
2015-10-27 20:19:55.201542, 479
2015-10-27 20:19:55.201607, 483
2015-10-27 20:19:55.217371, 492
2015-10-27 20:19:55.217467, 493
2015-10-27 20:19:55.217535, 484
2015-10-27 20:19:55.233499, 478
2015-10-27 20:19:55.233607, 469
2015-10-27 20:19:55.233672, 475
2015-10-27 20:19:55.249503, 505
2015-10-27 20:19:55.249608, 563
2015-10-27 20:19:55.249675, 666
2015-10-27 20:19:55.265502, 755
2015-10-27 20:19:55.265609, 825
2015-10-27 20:19:55.265674, 866
2015-10-27 20:19:55.265736, 810
2015-10-27 20:19:55.281562, 643
2015-10-27 20:19:55.281651, 443
2015-10-27 20:19:55.281716, 371
2015-10-27 20:19:55.297539, 417
2015-10-27 20:19:55.297628, 471
2015-10-27 20:19:55.297693, 490
2015-10-27 20:19:55.313551, 498
2015-10-27 20:19:55.313640, 501
2015-10-27 20:19:55.313705, 503
2015-10-27 20:19:55.329670, 505
2015-10-27 20:19:55.329762, 506
2015-10-27 20:19:55.329845, 509
2015-10-27 20:19:55.345514, 515
2015-10-27 20:19:55.345603, 519
2015-10-27 20:19:55.345668, 515
2015-10-27 20:19:55.361734, 512
2015-10-27 20:19:55.361834, 508
2015-10-27 20:19:55.361900, 513
2015-10-27 20:19:55.377566, 521
2015-10-27 20:19:55.377683, 522
2015-10-27 20:19:55.377750, 519
2015-10-27 20:19:55.393613, 522
2015-10-27 20:19:55.393728, 530
2015-10-27 20:19:55.393794, 530
2015-10-27 20:19:55.409538, 524
2015-10-27 20:19:55.409628, 527
2015-10-27 20:19:55.409691, 532
2015-10-27 20:19:55.425555, 534
2015-10-27 20:19:55.425723, 536
2015-10-27 20:19:55.425825, 535
2015-10-27 20:19:55.441355, 540
2015-10-27 20:19:55.441661, 546
2015-10-27 20:19:55.442063, 549
2015-10-27 20:19:55.457550, 555
2015-10-27 20:19:55.457643, 563
2015-10-27 20:19:55.457718, 564
2015-10-27 20:19:55.473475, 566
2015-10-27 20:19:55.473582, 571
2015-10-27 20:19:55.473649, 574
2015-10-27 20:19:55.489461, 578
2015-10-27 20:19:55.489725, 583
2015-10-27 20:19:55.489811, 597
2015-10-27 20:19:55.505435, 605
2015-10-27 20:19:55.505541, 606
2015-10-27 20:19:55.505608, 611
2015-10-27 20:19:55.505687, 609
2015-10-27 20:19:55.521499, 604
2015-10-27 20:19:55.521588, 604
2015-10-27 20:19:55.521654, 602
2015-10-27 20:19:55.537558, 595
2015-10-27 20:19:55.537647, 584
2015-10-27 20:19:55.537719, 576
2015-10-27 20:19:55.553448, 563
2015-10-27 20:19:55.553525, 549
2015-10-27 20:19:55.553570, 537
2015-10-27 20:19:55.569452, 520
2015-10-27 20:19:55.569544, 506
2015-10-27 20:19:55.569679, 494
2015-10-27 20:19:55.585251, 481
2015-10-27 20:19:55.585306, 466
2015-10-27 20:19:55.585391, 457
2015-10-27 20:19:55.601251, 448
2015-10-27 20:19:55.601303, 434
2015-10-27 20:19:55.601340, 429
2015-10-27 20:19:55.617278, 436
2015-10-27 20:19:55.617341, 431
2015-10-27 20:19:55.617385, 423
2015-10-27 20:19:55.633192, 420
2015-10-27 20:19:55.633257, 428
2015-10-27 20:19:55.633302, 432
2015-10-27 20:19:55.649207, 427
2015-10-27 20:19:55.649274, 424
2015-10-27 20:19:55.649319, 428
2015-10-27 20:19:55.665264, 427
2015-10-27 20:19:55.665330, 423
2015-10-27 20:19:55.665378, 424
2015-10-27 20:19:55.681253, 426
2015-10-27 20:19:55.681364, 433
2015-10-27 20:19:55.681449, 435
2015-10-27 20:19:55.697321, 435
2015-10-27 20:19:55.697492, 437
2015-10-27 20:19:55.697625, 436
2015-10-27 20:19:55.713226, 436
2015-10-27 20:19:55.713317, 440
2015-10-27 20:19:55.713384, 439
2015-10-27 20:19:55.729392, 434
2015-10-27 20:19:55.729504, 438
2015-10-27 20:19:55.729570, 447
2015-10-27 20:19:55.745213, 448
2015-10-27 20:19:55.745320, 442
2015-10-27 20:19:55.745388, 438
2015-10-27 20:19:55.761193, 442
2015-10-27 20:19:55.761310, 441
2015-10-27 20:19:55.761358, 441
2015-10-27 20:19:55.761404, 446
2015-10-27 20:19:55.777322, 446
2015-10-27 20:19:55.777395, 443
2015-10-27 20:19:55.777448, 440
2015-10-27 20:19:55.793243, 443
2015-10-27 20:19:55.793331, 453
2015-10-27 20:19:55.793393, 456
2015-10-27 20:19:55.809228, 452
2015-10-27 20:19:55.809318, 449
2015-10-27 20:19:55.809383, 449
2015-10-27 20:19:55.825276, 451
2015-10-27 20:19:55.825466, 449
2015-10-27 20:19:55.825622, 449
2015-10-27 20:19:55.841333, 446
2015-10-27 20:19:55.841424, 444
2015-10-27 20:19:55.841488, 447
2015-10-27 20:19:55.857159, 452
2015-10-27 20:19:55.857383, 452
2015-10-27 20:19:55.857444, 449
2015-10-27 20:19:55.873283, 448
2015-10-27 20:19:55.873517, 453
2015-10-27 20:19:55.873620, 455
2015-10-27 20:19:55.889317, 454
2015-10-27 20:19:55.889454, 456
2015-10-27 20:19:55.889625, 459
2015-10-27 20:19:55.905485, 460
2015-10-27 20:19:55.905565, 456
2015-10-27 20:19:55.905610, 453
2015-10-27 20:19:55.921454, 455
2015-10-27 20:19:55.921623, 453
2015-10-27 20:19:55.921682, 450
2015-10-27 20:19:55.937316, 460
2015-10-27 20:19:55.937420, 465
2015-10-27 20:19:55.937471, 468
2015-10-27 20:19:55.953290, 465
2015-10-27 20:19:55.953447, 466
2015-10-27 20:19:55.953568, 473
2015-10-27 20:19:55.969194, 473
2015-10-27 20:19:55.969268, 472
2015-10-27 20:19:55.969304, 469
2015-10-27 20:19:55.985184, 470
2015-10-27 20:19:55.985292, 470
2015-10-27 20:19:55.985358, 469
2015-10-27 20:19:56.001370, 472
2015-10-27 20:19:56.001508, 475
2015-10-27 20:19:56.001580, 472
2015-10-27 20:19:56.001645, 473
2015-10-27 20:19:56.017503, 478
2015-10-27 20:19:56.017605, 485
2015-10-27 20:19:56.017783, 488
2015-10-27 20:19:56.033244, 488
2015-10-27 20:19:56.033333, 492
2015-10-27 20:19:56.033398, 498
2015-10-27 20:19:56.049241, 501
2015-10-27 20:19:56.049330, 506
2015-10-27 20:19:56.049395, 510
2015-10-27 20:19:56.065209, 511
2015-10-27 20:19:56.065299, 510
2015-10-27 20:19:56.065364, 506
2015-10-27 20:19:56.081230, 510
2015-10-27 20:19:56.081330, 516
2015-10-27 20:19:56.081439, 515
2015-10-27 20:19:56.097225, 516
2015-10-27 20:19:56.097317, 519
2015-10-27 20:19:56.097381, 518
2015-10-27 20:19:56.113451, 518
2015-10-27 20:19:56.113542, 517
2015-10-27 20:19:56.113628, 512
2015-10-27 20:19:56.129333, 504
2015-10-27 20:19:56.129423, 498
2015-10-27 20:19:56.129489, 501
2015-10-27 20:19:56.145439, 504
2015-10-27 20:19:56.145598, 502
2015-10-27 20:19:56.145712, 502
2015-10-27 20:19:56.161167, 505
2015-10-27 20:19:56.161254, 504
2015-10-27 20:19:56.161362, 509
2015-10-27 20:19:56.177998, 515
2015-10-27 20:19:56.178320, 514
2015-10-27 20:19:56.178406, 514
2015-10-27 20:19:56.193083, 514
2015-10-27 20:19:56.193173, 512
2015-10-27 20:19:56.193234, 513
2015-10-27 20:19:56.216336, 513
2015-10-27 20:19:56.216446, 516
2015-10-27 20:19:56.216518, 517
2015-10-27 20:19:56.226528, 517
2015-10-27 20:19:56.226635, 518
2015-10-27 20:19:56.226982, 510
2015-10-27 20:19:56.248888, 502
2015-10-27 20:19:56.249012, 516
2015-10-27 20:19:56.249096, 551
2015-10-27 20:19:56.250758, 633
2015-10-27 20:19:56.257173, 727
2015-10-27 20:19:56.257261, 804
2015-10-27 20:19:56.257532, 869
2015-10-27 20:19:56.273157, 863
2015-10-27 20:19:56.273254, 748
2015-10-27 20:19:56.273327, 555
2015-10-27 20:19:56.289142, 415
2015-10-27 20:19:56.289231, 413
2015-10-27 20:19:56.289295, 472
2015-10-27 20:19:56.305124, 510
2015-10-27 20:19:56.305214, 519
2015-10-27 20:19:56.305280, 518
2015-10-27 20:19:56.321267, 519
2015-10-27 20:19:56.321358, 520
2015-10-27 20:19:56.321422, 518
2015-10-27 20:19:56.337167, 520
2015-10-27 20:19:56.337238, 526
2015-10-27 20:19:56.337284, 529
2015-10-27 20:19:56.353227, 533
2015-10-27 20:19:56.353325, 533
2015-10-27 20:19:56.353391, 526
2015-10-27 20:19:56.369100, 518
2015-10-27 20:19:56.369191, 518
2015-10-27 20:19:56.369256, 521
2015-10-27 20:19:56.385214, 526
2015-10-27 20:19:56.385313, 529
2015-10-27 20:19:56.385379, 531
2015-10-27 20:19:56.401272, 533
2015-10-27 20:19:56.401406, 535
2015-10-27 20:19:56.401476, 535
2015-10-27 20:19:56.417103, 534
2015-10-27 20:19:56.417196, 537
2015-10-27 20:19:56.417262, 542
2015-10-27 20:19:56.433150, 543
2015-10-27 20:19:56.433277, 548
2015-10-27 20:19:56.433344, 550
2015-10-27 20:19:56.449043, 549
2015-10-27 20:19:56.449151, 554
2015-10-27 20:19:56.449217, 560
2015-10-27 20:19:56.465051, 569
2015-10-27 20:19:56.465161, 575
2015-10-27 20:19:56.465228, 580
2015-10-27 20:19:56.481045, 588
2015-10-27 20:19:56.481155, 601
2015-10-27 20:19:56.481222, 611
2015-10-27 20:19:56.481284, 617
2015-10-27 20:19:56.497066, 620
2015-10-27 20:19:56.497116, 624
2015-10-27 20:19:56.497151, 630
2015-10-27 20:19:56.513350, 640
2015-10-27 20:19:56.513442, 643
2015-10-27 20:19:56.513507, 641
2015-10-27 20:19:56.529209, 633
2015-10-27 20:19:56.529366, 624
2015-10-27 20:19:56.529446, 619
2015-10-27 20:19:56.545066, 605
2015-10-27 20:19:56.545155, 599
2015-10-27 20:19:56.545220, 594
2015-10-27 20:19:56.561198, 581
2015-10-27 20:19:56.561289, 564
2015-10-27 20:19:56.561353, 548
2015-10-27 20:19:56.577145, 532
2015-10-27 20:19:56.577234, 522
2015-10-27 20:19:56.577298, 512
2015-10-27 20:19:56.593173, 499
2015-10-27 20:19:56.593263, 489
2015-10-27 20:19:56.593328, 484
2015-10-27 20:19:56.609190, 478
2015-10-27 20:19:56.609279, 478
2015-10-27 20:19:56.609344, 476
2015-10-27 20:19:56.625333, 474
2015-10-27 20:19:56.625455, 477
2015-10-27 20:19:56.625520, 477
2015-10-27 20:19:56.641150, 474
2015-10-27 20:19:56.641241, 471
2015-10-27 20:19:56.641306, 469
2015-10-27 20:19:56.657022, 472
2015-10-27 20:19:56.657115, 476
2015-10-27 20:19:56.657181, 475
2015-10-27 20:19:56.673183, 473
2015-10-27 20:19:56.673313, 471
2015-10-27 20:19:56.673379, 476
2015-10-27 20:19:56.689201, 477
2015-10-27 20:19:56.689329, 472
2015-10-27 20:19:56.689395, 472
2015-10-27 20:19:56.705079, 484
2015-10-27 20:19:56.705186, 488
2015-10-27 20:19:56.705252, 490
2015-10-27 20:19:56.720941, 491
2015-10-27 20:19:56.721018, 490
2015-10-27 20:19:56.721064, 492
2015-10-27 20:19:56.737179, 494
2015-10-27 20:19:56.737339, 493
2015-10-27 20:19:56.737405, 494
2015-10-27 20:19:56.737468, 493
2015-10-27 20:19:56.753182, 490
2015-10-27 20:19:56.753272, 488
2015-10-27 20:19:56.753336, 493
2015-10-27 20:19:56.769172, 496
2015-10-27 20:19:56.769261, 497
2015-10-27 20:19:56.769325, 497
2015-10-27 20:19:56.785154, 490
2015-10-27 20:19:56.785243, 489
2015-10-27 20:19:56.785308, 495
2015-10-27 20:19:56.801223, 497
2015-10-27 20:19:56.801557, 494
2015-10-27 20:19:56.801680, 494
2015-10-27 20:19:56.817006, 498
2015-10-27 20:19:56.817109, 497
2015-10-27 20:19:56.817250, 494
2015-10-27 20:19:56.833087, 491
2015-10-27 20:19:56.833178, 500
2015-10-27 20:19:56.833243, 506
2015-10-27 20:19:56.849105, 498
2015-10-27 20:19:56.849252, 496
2015-10-27 20:19:56.849320, 501
2015-10-27 20:19:56.865103, 502
2015-10-27 20:19:56.865193, 509
2015-10-27 20:19:56.865312, 512
2015-10-27 20:19:56.881250, 512
2015-10-27 20:19:56.881383, 507
2015-10-27 20:19:56.881452, 504
2015-10-27 20:19:56.897111, 504
2015-10-27 20:19:56.897205, 503
2015-10-27 20:19:56.897272, 496
2015-10-27 20:19:56.913091, 497
2015-10-27 20:19:56.913183, 504
2015-10-27 20:19:56.913248, 503
2015-10-27 20:19:56.928853, 499
2015-10-27 20:19:56.928967, 501
2015-10-27 20:19:56.929053, 506
2015-10-27 20:19:56.945106, 509
2015-10-27 20:19:56.945214, 505
2015-10-27 20:19:56.945281, 502
2015-10-27 20:19:56.960993, 501
2015-10-27 20:19:56.961104, 501
2015-10-27 20:19:56.961170, 502
2015-10-27 20:19:56.976884, 508
2015-10-27 20:19:56.976994, 513
2015-10-27 20:19:56.977065, 512
2015-10-27 20:19:56.977128, 507
2015-10-27 20:19:56.993159, 506
2015-10-27 20:19:56.993253, 508
2015-10-27 20:19:56.993318, 507
2015-10-27 20:19:57.009125, 504
2015-10-27 20:19:57.009219, 510
2015-10-27 20:19:57.009283, 517
2015-10-27 20:19:57.024890, 513
2015-10-27 20:19:57.024979, 500
2015-10-27 20:19:57.025163, 497
2015-10-27 20:19:57.041017, 511
2015-10-27 20:19:57.041080, 518
2015-10-27 20:19:57.041124, 518
2015-10-27 20:19:57.057127, 514
2015-10-27 20:19:57.057218, 511
2015-10-27 20:19:57.057283, 518
2015-10-27 20:19:57.073123, 518
2015-10-27 20:19:57.073239, 515
2015-10-27 20:19:57.073304, 513
2015-10-27 20:19:57.089007, 509
2015-10-27 20:19:57.089097, 502
2015-10-27 20:19:57.089162, 508
2015-10-27 20:19:57.104971, 513
2015-10-27 20:19:57.105068, 516
2015-10-27 20:19:57.105133, 521
2015-10-27 20:19:57.120844, 523
2015-10-27 20:19:57.120945, 518
2015-10-27 20:19:57.121016, 519
2015-10-27 20:19:57.137213, 522
2015-10-27 20:19:57.137310, 522
2015-10-27 20:19:57.137376, 519
2015-10-27 20:19:57.153049, 521
2015-10-27 20:19:57.153141, 529
2015-10-27 20:19:57.153206, 526
2015-10-27 20:19:57.168815, 519
2015-10-27 20:19:57.168906, 521
2015-10-27 20:19:57.168971, 525
2015-10-27 20:19:57.184827, 522
2015-10-27 20:19:57.184934, 517
2015-10-27 20:19:57.185000, 509
2015-10-27 20:19:57.201019, 503
2015-10-27 20:19:57.201179, 495
2015-10-27 20:19:57.201245, 491
2015-10-27 20:19:57.216928, 494
2015-10-27 20:19:57.217034, 499
2015-10-27 20:19:57.217101, 499
2015-10-27 20:19:57.217215, 497
2015-10-27 20:19:57.232995, 499
2015-10-27 20:19:57.233085, 501
2015-10-27 20:19:57.233151, 499
2015-10-27 20:19:57.248916, 499
2015-10-27 20:19:57.249028, 496
2015-10-27 20:19:57.249109, 497
2015-10-27 20:19:57.265018, 501
2015-10-27 20:19:57.265108, 502
2015-10-27 20:19:57.265174, 498
2015-10-27 20:19:57.280831, 496
2015-10-27 20:19:57.280919, 496
2015-10-27 20:19:57.280995, 493
2015-10-27 20:19:57.296964, 497
2015-10-27 20:19:57.297056, 491
2015-10-27 20:19:57.297120, 478
2015-10-27 20:19:57.312917, 482
2015-10-27 20:19:57.313012, 509
2015-10-27 20:19:57.313076, 573
2015-10-27 20:19:57.329039, 677
2015-10-27 20:19:57.329130, 769
2015-10-27 20:19:57.329195, 846
2015-10-27 20:19:57.344948, 881
2015-10-27 20:19:57.345038, 800
2015-10-27 20:19:57.345103, 620
2015-10-27 20:19:57.360938, 441
2015-10-27 20:19:57.361028, 390
2015-10-27 20:19:57.361093, 432
2015-10-27 20:19:57.376764, 478
2015-10-27 20:19:57.376901, 495
2015-10-27 20:19:57.376970, 499
2015-10-27 20:19:57.392976, 499
2015-10-27 20:19:57.393070, 498
2015-10-27 20:19:57.393135, 498
2015-10-27 20:19:57.408987, 499
2015-10-27 20:19:57.409105, 498
2015-10-27 20:19:57.409170, 501
2015-10-27 20:19:57.424893, 502
2015-10-27 20:19:57.425001, 503
2015-10-27 20:19:57.425067, 505
2015-10-27 20:19:57.440710, 508
2015-10-27 20:19:57.440820, 507
2015-10-27 20:19:57.440886, 501
2015-10-27 20:19:57.456930, 501
2015-10-27 20:19:57.457081, 506
2015-10-27 20:19:57.457147, 507
2015-10-27 20:19:57.457209, 506
2015-10-27 20:19:57.473054, 502
2015-10-27 20:19:57.473201, 502
2015-10-27 20:19:57.473268, 505
2015-10-27 20:19:57.488980, 510
2015-10-27 20:19:57.489069, 514
2015-10-27 20:19:57.489134, 518
2015-10-27 20:19:57.504855, 515
2015-10-27 20:19:57.504944, 514
2015-10-27 20:19:57.505009, 519
2015-10-27 20:19:57.520936, 530
2015-10-27 20:19:57.521107, 536
2015-10-27 20:19:57.521265, 536
2015-10-27 20:19:57.536779, 538
2015-10-27 20:19:57.536867, 543
2015-10-27 20:19:57.536932, 548
2015-10-27 20:19:57.552788, 554
2015-10-27 20:19:57.552878, 559
2015-10-27 20:19:57.552944, 565
2015-10-27 20:19:57.568871, 576
2015-10-27 20:19:57.568962, 585
2015-10-27 20:19:57.569027, 590
2015-10-27 20:19:57.584947, 595
2015-10-27 20:19:57.585243, 587
2015-10-27 20:19:57.585363, 586
2015-10-27 20:19:57.600887, 587
2015-10-27 20:19:57.600977, 582
2015-10-27 20:19:57.601042, 581
2015-10-27 20:19:57.616873, 579
2015-10-27 20:19:57.616964, 568
2015-10-27 20:19:57.617029, 552
2015-10-27 20:19:57.632835, 546
2015-10-27 20:19:57.632927, 533
2015-10-27 20:19:57.632992, 512
2015-10-27 20:19:57.648822, 492
2015-10-27 20:19:57.648926, 476
2015-10-27 20:19:57.648992, 465
2015-10-27 20:19:57.664668, 455
2015-10-27 20:19:57.664762, 444
2015-10-27 20:19:57.664828, 437
2015-10-27 20:19:57.680807, 434
2015-10-27 20:19:57.680921, 429
2015-10-27 20:19:57.680987, 423
2015-10-27 20:19:57.696890, 415
2015-10-27 20:19:57.697011, 416
2015-10-27 20:19:57.697078, 420
2015-10-27 20:19:57.712810, 419
2015-10-27 20:19:57.712975, 416
2015-10-27 20:19:57.713048, 421
2015-10-27 20:19:57.713112, 422
2015-10-27 20:19:57.728667, 421
2015-10-27 20:19:57.728758, 423
2015-10-27 20:19:57.728824, 426
2015-10-27 20:19:57.744641, 429
2015-10-27 20:19:57.744692, 435
2015-10-27 20:19:57.744729, 440
2015-10-27 20:19:57.760654, 438
2015-10-27 20:19:57.760739, 434
2015-10-27 20:19:57.760836, 433
2015-10-27 20:19:57.776700, 435
2015-10-27 20:19:57.776792, 437
2015-10-27 20:19:57.776838, 436
2015-10-27 20:19:57.792629, 438
2015-10-27 20:19:57.792691, 441
2015-10-27 20:19:57.792735, 441
2015-10-27 20:19:57.808729, 437
2015-10-27 20:19:57.808846, 438
2015-10-27 20:19:57.808915, 443
2015-10-27 20:19:57.824599, 447
2015-10-27 20:19:57.824677, 449
2015-10-27 20:19:57.824733, 452
2015-10-27 20:19:57.840605, 457
2015-10-27 20:19:57.840687, 458
2015-10-27 20:19:57.840727, 459
2015-10-27 20:19:57.856600, 464
2015-10-27 20:19:57.856654, 465
2015-10-27 20:19:57.856691, 463
2015-10-27 20:19:57.872709, 469
2015-10-27 20:19:57.872777, 478
2015-10-27 20:19:57.872822, 484
2015-10-27 20:19:57.888601, 481
2015-10-27 20:19:57.888656, 476
2015-10-27 20:19:57.888694, 473
2015-10-27 20:19:57.904769, 469
2015-10-27 20:19:57.904870, 469
2015-10-27 20:19:57.904925, 479
2015-10-27 20:19:57.920750, 481
2015-10-27 20:19:57.920865, 479
2015-10-27 20:19:57.920949, 477
2015-10-27 20:19:57.936630, 477
2015-10-27 20:19:57.936872, 477
2015-10-27 20:19:57.936966, 469
2015-10-27 20:19:57.952606, 464
2015-10-27 20:19:57.952703, 471
2015-10-27 20:19:57.952772, 474
2015-10-27 20:19:57.952834, 472
2015-10-27 20:19:57.968689, 467
2015-10-27 20:19:57.968786, 461
2015-10-27 20:19:57.968856, 464
2015-10-27 20:19:57.984625, 466
2015-10-27 20:19:57.984716, 467
2015-10-27 20:19:57.984786, 467
2015-10-27 20:19:58.000658, 465
2015-10-27 20:19:58.000805, 464
2015-10-27 20:19:58.000880, 462
2015-10-27 20:19:58.016835, 465
2015-10-27 20:19:58.016971, 466
2015-10-27 20:19:58.017054, 468
2015-10-27 20:19:58.032660, 466
2015-10-27 20:19:58.032750, 464
2015-10-27 20:19:58.032815, 468
2015-10-27 20:19:58.048674, 466
2015-10-27 20:19:58.048763, 468
2015-10-27 20:19:58.048829, 472
2015-10-27 20:19:58.064632, 472
2015-10-27 20:19:58.064723, 470
2015-10-27 20:19:58.064788, 469
2015-10-27 20:19:58.080777, 478
2015-10-27 20:19:58.080887, 480
2015-10-27 20:19:58.080955, 473
2015-10-27 20:19:58.096656, 471
2015-10-27 20:19:58.096747, 469
2015-10-27 20:19:58.096830, 473
2015-10-27 20:19:58.112856, 478
2015-10-27 20:19:58.112986, 480
2015-10-27 20:19:58.113051, 480
2015-10-27 20:19:58.128879, 476
2015-10-27 20:19:58.128973, 474
2015-10-27 20:19:58.129039, 476
2015-10-27 20:19:58.144760, 483
2015-10-27 20:19:58.144852, 486
2015-10-27 20:19:58.144917, 489
2015-10-27 20:19:58.160597, 490
2015-10-27 20:19:58.160703, 492
2015-10-27 20:19:58.160769, 492
2015-10-27 20:19:58.176734, 492
2015-10-27 20:19:58.176840, 498
2015-10-27 20:19:58.176906, 503
2015-10-27 20:19:58.192754, 503
2015-10-27 20:19:58.192863, 503
2015-10-27 20:19:58.192929, 504
2015-10-27 20:19:58.192991, 511
2015-10-27 20:19:58.208778, 516
2015-10-27 20:19:58.208867, 520
2015-10-27 20:19:58.208932, 520
2015-10-27 20:19:58.224760, 515
2015-10-27 20:19:58.224850, 515
2015-10-27 20:19:58.224914, 518
2015-10-27 20:19:58.240629, 519
2015-10-27 20:19:58.240692, 518
2015-10-27 20:19:58.240736, 515
2015-10-27 20:19:58.256542, 514
2015-10-27 20:19:58.256606, 509
2015-10-27 20:19:58.256652, 500
2015-10-27 20:19:58.272558, 503
2015-10-27 20:19:58.272630, 506
2015-10-27 20:19:58.272683, 505
2015-10-27 20:19:58.288613, 502
2015-10-27 20:19:58.288725, 500
2015-10-27 20:19:58.288775, 499
2015-10-27 20:19:58.304612, 501
2015-10-27 20:19:58.304697, 502
2015-10-27 20:19:58.304745, 504
2015-10-27 20:19:58.320635, 505
2015-10-27 20:19:58.320741, 505
2015-10-27 20:19:58.320808, 506
2015-10-27 20:19:58.336605, 506
2015-10-27 20:19:58.336777, 509
2015-10-27 20:19:58.336915, 504
2015-10-27 20:19:58.352726, 502
2015-10-27 20:19:58.352901, 508
2015-10-27 20:19:58.353024, 512
2015-10-27 20:19:58.368723, 506
2015-10-27 20:19:58.368834, 493
2015-10-27 20:19:58.368888, 500
2015-10-27 20:19:58.384584, 534
2015-10-27 20:19:58.384686, 585
2015-10-27 20:19:58.384751, 679
2015-10-27 20:19:58.400465, 770
2015-10-27 20:19:58.400554, 845
2015-10-27 20:19:58.400607, 898
2015-10-27 20:19:58.416472, 853
2015-10-27 20:19:58.416581, 701
2015-10-27 20:19:58.416659, 499
2015-10-27 20:19:58.432445, 406
2015-10-27 20:19:58.432513, 436
2015-10-27 20:19:58.432550, 488
2015-10-27 20:19:58.432585, 514
2015-10-27 20:19:58.449763, 517
2015-10-27 20:19:58.449839, 518
2015-10-27 20:19:58.449915, 519
2015-10-27 20:19:58.465319, 519
2015-10-27 20:19:58.465397, 518
2015-10-27 20:19:58.465460, 528
2015-10-27 20:19:58.480764, 532
2015-10-27 20:19:58.480857, 524
2015-10-27 20:19:58.480961, 528
2015-10-27 20:19:58.497780, 538
2015-10-27 20:19:58.497869, 538
2015-10-27 20:19:58.497942, 537
2015-10-27 20:19:58.512484, 540
2015-10-27 20:19:58.512570, 545
2015-10-27 20:19:58.512639, 546
2015-10-27 20:19:58.532850, 547
2015-10-27 20:19:58.532933, 548
2015-10-27 20:19:58.533000, 549
2015-10-27 20:19:58.544545, 549
2015-10-27 20:19:58.544609, 548
2015-10-27 20:19:58.544650, 548
2015-10-27 20:19:58.560685, 552
2015-10-27 20:19:58.560864, 552
2015-10-27 20:19:58.560934, 561
2015-10-27 20:19:58.576728, 570
2015-10-27 20:19:58.576992, 574
2015-10-27 20:19:58.577073, 576
2015-10-27 20:19:58.592632, 577
2015-10-27 20:19:58.592724, 581
2015-10-27 20:19:58.592790, 586
2015-10-27 20:19:58.608629, 591
2015-10-27 20:19:58.608723, 597
2015-10-27 20:19:58.608791, 603
2015-10-27 20:19:58.624544, 606
2015-10-27 20:19:58.624643, 616
2015-10-27 20:19:58.624709, 624
2015-10-27 20:19:58.640766, 634
2015-10-27 20:19:58.640869, 641
2015-10-27 20:19:58.640934, 642
2015-10-27 20:19:58.656624, 646
2015-10-27 20:19:58.656732, 645
2015-10-27 20:19:58.656799, 638
2015-10-27 20:19:58.672641, 634
2015-10-27 20:19:58.672749, 631
2015-10-27 20:19:58.672816, 619
2015-10-27 20:19:58.672878, 603
2015-10-27 20:19:58.688517, 590
2015-10-27 20:19:58.688609, 580
2015-10-27 20:19:58.688673, 567
2015-10-27 20:19:58.704625, 549
2015-10-27 20:19:58.704714, 529
2015-10-27 20:19:58.704779, 515
2015-10-27 20:19:58.721397, 506
2015-10-27 20:19:58.721549, 492
2015-10-27 20:19:58.721743, 479
2015-10-27 20:19:58.736716, 471
2015-10-27 20:19:58.736805, 466
2015-10-27 20:19:58.736869, 458
2015-10-27 20:19:58.752448, 456
2015-10-27 20:19:58.752537, 456
2015-10-27 20:19:58.752601, 452
2015-10-27 20:19:58.768484, 447
2015-10-27 20:19:58.768573, 444
2015-10-27 20:19:58.768638, 441
2015-10-27 20:19:58.784440, 438
2015-10-27 20:19:58.784529, 444
2015-10-27 20:19:58.784593, 445
2015-10-27 20:19:58.800570, 442
2015-10-27 20:19:58.800660, 442
2015-10-27 20:19:58.800724, 446
2015-10-27 20:19:58.816446, 450
2015-10-27 20:19:58.816536, 455
2015-10-27 20:19:58.816602, 453
2015-10-27 20:19:58.832583, 450
2015-10-27 20:19:58.832675, 454
2015-10-27 20:19:58.832741, 452
2015-10-27 20:19:58.848506, 451
2015-10-27 20:19:58.848599, 451
2015-10-27 20:19:58.848664, 451
2015-10-27 20:19:58.864583, 449
2015-10-27 20:19:58.864675, 447
2015-10-27 20:19:58.864740, 445
2015-10-27 20:19:58.880593, 443
2015-10-27 20:19:58.880686, 440
2015-10-27 20:19:58.880751, 442
2015-10-27 20:19:58.896373, 447
2015-10-27 20:19:58.896585, 455
2015-10-27 20:19:58.896783, 457
2015-10-27 20:19:58.912375, 456
2015-10-27 20:19:58.912549, 451
2015-10-27 20:19:58.912684, 451
2015-10-27 20:19:58.928481, 453
2015-10-27 20:19:58.928588, 450
2015-10-27 20:19:58.928654, 448
2015-10-27 20:19:58.928716, 450
2015-10-27 20:19:58.944439, 447
2015-10-27 20:19:58.944528, 451
2015-10-27 20:19:58.944593, 451
2015-10-27 20:19:58.960535, 450
2015-10-27 20:19:58.960624, 446
2015-10-27 20:19:58.960693, 446
2015-10-27 20:19:58.976408, 445
2015-10-27 20:19:58.976499, 444
2015-10-27 20:19:58.976564, 446
2015-10-27 20:19:58.992388, 447
2015-10-27 20:19:58.992478, 447
2015-10-27 20:19:58.992543, 447
2015-10-27 20:19:59.008739, 445
2015-10-27 20:19:59.009371, 442
2015-10-27 20:19:59.009466, 437
2015-10-27 20:19:59.024292, 433
2015-10-27 20:19:59.024346, 435
2015-10-27 20:19:59.024382, 438
2015-10-27 20:19:59.040346, 443
2015-10-27 20:19:59.040452, 441
2015-10-27 20:19:59.040529, 440
2015-10-27 20:19:59.056298, 438
2015-10-27 20:19:59.056363, 436
2015-10-27 20:19:59.056409, 431
2015-10-27 20:19:59.072366, 432
2015-10-27 20:19:59.072447, 435
2015-10-27 20:19:59.072497, 434
2015-10-27 20:19:59.088305, 429
2015-10-27 20:19:59.088360, 423
2015-10-27 20:19:59.088396, 420
2015-10-27 20:19:59.104317, 426
2015-10-27 20:19:59.104397, 435
2015-10-27 20:19:59.104450, 441
2015-10-27 20:19:59.120322, 443
2015-10-27 20:19:59.120380, 444
2015-10-27 20:19:59.120416, 441
2015-10-27 20:19:59.136260, 439
2015-10-27 20:19:59.136401, 440
2015-10-27 20:19:59.136487, 443
2015-10-27 20:19:59.152319, 441
2015-10-27 20:19:59.152439, 443
2015-10-27 20:19:59.152654, 448
2015-10-27 20:19:59.168259, 452
2015-10-27 20:19:59.168337, 450
2015-10-27 20:19:59.168376, 454
2015-10-27 20:19:59.168411, 461
2015-10-27 20:19:59.184650, 464
2015-10-27 20:19:59.184764, 462
2015-10-27 20:19:59.184860, 461
2015-10-27 20:19:59.200278, 464
2015-10-27 20:19:59.200356, 464
2015-10-27 20:19:59.200401, 462
2015-10-27 20:19:59.216312, 462
2015-10-27 20:19:59.216374, 468
2015-10-27 20:19:59.216419, 474
2015-10-27 20:19:59.232464, 476
2015-10-27 20:19:59.232553, 478
2015-10-27 20:19:59.232617, 479
2015-10-27 20:19:59.248206, 474
2015-10-27 20:19:59.248260, 480
2015-10-27 20:19:59.248296, 487
2015-10-27 20:19:59.264312, 484
2015-10-27 20:19:59.264401, 480
2015-10-27 20:19:59.264467, 487
2015-10-27 20:19:59.280269, 495
2015-10-27 20:19:59.280370, 497
2015-10-27 20:19:59.280448, 493
2015-10-27 20:19:59.296625, 496
2015-10-27 20:19:59.296904, 496
2015-10-27 20:19:59.297054, 493
2015-10-27 20:19:59.312262, 487
2015-10-27 20:19:59.312354, 483
2015-10-27 20:19:59.312420, 483
2015-10-27 20:19:59.328383, 480
2015-10-27 20:19:59.328537, 475
2015-10-27 20:19:59.328667, 488
2015-10-27 20:19:59.344236, 493
2015-10-27 20:19:59.344355, 490
2015-10-27 20:19:59.344408, 489
2015-10-27 20:19:59.360385, 489
2015-10-27 20:19:59.360477, 490
2015-10-27 20:19:59.360602, 489
2015-10-27 20:19:59.376177, 493
2015-10-27 20:19:59.376270, 498
2015-10-27 20:19:59.376317, 499
2015-10-27 20:19:59.392338, 500
2015-10-27 20:19:59.392445, 500
2015-10-27 20:19:59.392511, 501
2015-10-27 20:19:59.408174, 501
2015-10-27 20:19:59.408282, 490
2015-10-27 20:19:59.408348, 476
2015-10-27 20:19:59.408410, 478
2015-10-27 20:19:59.424387, 503
2015-10-27 20:19:59.424476, 564
2015-10-27 20:19:59.424553, 666
2015-10-27 20:19:59.440241, 752
2015-10-27 20:19:59.440331, 818
2015-10-27 20:19:59.440396, 850
2015-10-27 20:19:59.456240, 776
2015-10-27 20:19:59.456317, 600
2015-10-27 20:19:59.456365, 412
2015-10-27 20:19:59.472279, 359
2015-10-27 20:19:59.472368, 413
2015-10-27 20:19:59.472433, 464
2015-10-27 20:19:59.488263, 481
2015-10-27 20:19:59.488421, 484
2015-10-27 20:19:59.488548, 484
2015-10-27 20:19:59.504381, 482
2015-10-27 20:19:59.504486, 475
2015-10-27 20:19:59.504560, 472
2015-10-27 20:19:59.520379, 470
2015-10-27 20:19:59.520471, 470
2015-10-27 20:19:59.520537, 468
2015-10-27 20:19:59.536222, 469
2015-10-27 20:19:59.536369, 471
2015-10-27 20:19:59.536461, 469
2015-10-27 20:19:59.552262, 467
2015-10-27 20:19:59.552355, 469
2015-10-27 20:19:59.552420, 471
2015-10-27 20:19:59.568443, 473
2015-10-27 20:19:59.568541, 470
2015-10-27 20:19:59.568609, 467
2015-10-27 20:19:59.584279, 464
2015-10-27 20:19:59.584372, 465
2015-10-27 20:19:59.584437, 468
2015-10-27 20:19:59.600155, 468
2015-10-27 20:19:59.600249, 472
2015-10-27 20:19:59.600316, 472
2015-10-27 20:19:59.616083, 469
2015-10-27 20:19:59.616149, 471
2015-10-27 20:19:59.616187, 475
2015-10-27 20:19:59.632081, 477
2015-10-27 20:19:59.632146, 478
2015-10-27 20:19:59.632183, 486
2015-10-27 20:19:59.648098, 491
2015-10-27 20:19:59.648186, 493
2015-10-27 20:19:59.648239, 503
2015-10-27 20:19:59.648289, 509
2015-10-27 20:19:59.664173, 509
2015-10-27 20:19:59.664261, 514
2015-10-27 20:19:59.664326, 523
2015-10-27 20:19:59.680149, 529
2015-10-27 20:19:59.680214, 528
2015-10-27 20:19:59.680259, 526
2015-10-27 20:19:59.696072, 526
2015-10-27 20:19:59.696124, 520
2015-10-27 20:19:59.696162, 521
2015-10-27 20:19:59.712156, 521
2015-10-27 20:19:59.712244, 515
2015-10-27 20:19:59.712309, 507
2015-10-27 20:19:59.728075, 493
2015-10-27 20:19:59.728149, 479
2015-10-27 20:19:59.728193, 467
2015-10-27 20:19:59.744112, 450
2015-10-27 20:19:59.744167, 439
2015-10-27 20:19:59.744203, 430
2015-10-27 20:19:59.760096, 412
2015-10-27 20:19:59.760177, 393
2015-10-27 20:19:59.760217, 379
2015-10-27 20:19:59.776089, 373
2015-10-27 20:19:59.776170, 366
2015-10-27 20:19:59.776227, 364
2015-10-27 20:19:59.792086, 359
2015-10-27 20:19:59.792200, 352
2015-10-27 20:19:59.792305, 346
2015-10-27 20:19:59.808254, 343
2015-10-27 20:19:59.808344, 337
2015-10-27 20:19:59.808409, 340
2015-10-27 20:19:59.824326, 346
2015-10-27 20:19:59.824419, 347
2015-10-27 20:19:59.824485, 348
2015-10-27 20:19:59.840273, 354
2015-10-27 20:19:59.840366, 359
2015-10-27 20:19:59.840431, 356
2015-10-27 20:19:59.856402, 362
2015-10-27 20:19:59.856495, 373
2015-10-27 20:19:59.856560, 370
2015-10-27 20:19:59.872315, 376
2015-10-27 20:19:59.872516, 381
2015-10-27 20:19:59.872632, 385
2015-10-27 20:19:59.888283, 387
2015-10-27 20:19:59.888392, 390
2015-10-27 20:19:59.888458, 391
2015-10-27 20:19:59.904164, 397
2015-10-27 20:19:59.904272, 397
2015-10-27 20:19:59.904338, 397
2015-10-27 20:19:59.904401, 406
2015-10-27 20:19:59.920376, 411
2015-10-27 20:19:59.920465, 413
2015-10-27 20:19:59.920531, 416
2015-10-27 20:19:59.936511, 424
2015-10-27 20:19:59.936601, 426
2015-10-27 20:19:59.936666, 427
2015-10-27 20:19:59.952388, 428
2015-10-27 20:19:59.952478, 431
2015-10-27 20:19:59.952542, 436
2015-10-27 20:19:59.968163, 436
2015-10-27 20:19:59.968252, 437
2015-10-27 20:19:59.968317, 437
2015-10-27 20:19:59.984284, 437
2015-10-27 20:19:59.984373, 434
2015-10-27 20:19:59.984496, 436
2015-10-27 20:20:00.000217, 439
2015-10-27 20:20:00.000312, 443
2015-10-27 20:20:00.000377, 447
2015-10-27 20:20:00.016126, 455
2015-10-27 20:20:00.016217, 460
2015-10-27 20:20:00.016283, 462
2015-10-27 20:20:00.032239, 464
2015-10-27 20:20:00.032379, 472
2015-10-27 20:20:00.032475, 472
2015-10-27 20:20:00.048370, 473
2015-10-27 20:20:00.048521, 484
2015-10-27 20:20:00.048592, 490
2015-10-27 20:20:00.064224, 492
2015-10-27 20:20:00.064319, 492
2015-10-27 20:20:00.064411, 494
2015-10-27 20:20:00.080381, 497
2015-10-27 20:20:00.080506, 500
2015-10-27 20:20:00.080573, 500
2015-10-27 20:20:00.096296, 500
2015-10-27 20:20:00.096389, 497
2015-10-27 20:20:00.096455, 498
2015-10-27 20:20:00.112426, 506
2015-10-27 20:20:00.112590, 511
2015-10-27 20:20:00.112707, 511
2015-10-27 20:20:00.128234, 511
2015-10-27 20:20:00.128406, 511
2015-10-27 20:20:00.128502, 513
2015-10-27 20:20:00.144326, 515
2015-10-27 20:20:00.144438, 514
2015-10-27 20:20:00.144503, 515
2015-10-27 20:20:00.144566, 509
2015-10-27 20:20:00.160156, 511
2015-10-27 20:20:00.160246, 512
2015-10-27 20:20:00.160311, 512
2015-10-27 20:20:00.176152, 511
2015-10-27 20:20:00.176243, 511
2015-10-27 20:20:00.176309, 518
2015-10-27 20:20:00.192091, 522
2015-10-27 20:20:00.192181, 525
2015-10-27 20:20:00.192246, 524
2015-10-27 20:20:00.208088, 516
2015-10-27 20:20:00.208177, 512
2015-10-27 20:20:00.208242, 515
2015-10-27 20:20:00.224124, 521
2015-10-27 20:20:00.224215, 524
2015-10-27 20:20:00.224279, 528
2015-10-27 20:20:00.240221, 532
2015-10-27 20:20:00.240310, 528
2015-10-27 20:20:00.240375, 521
2015-10-27 20:20:00.256047, 524
2015-10-27 20:20:00.256140, 524
2015-10-27 20:20:00.256205, 521
2015-10-27 20:20:00.272281, 524
2015-10-27 20:20:00.272377, 525
2015-10-27 20:20:00.272443, 526
2015-10-27 20:20:00.288249, 524
2015-10-27 20:20:00.288344, 520
2015-10-27 20:20:00.288410, 518
2015-10-27 20:20:00.304083, 514
2015-10-27 20:20:00.304178, 506
2015-10-27 20:20:00.304245, 505
2015-10-27 20:20:00.320030, 505
2015-10-27 20:20:00.320124, 500
2015-10-27 20:20:00.320189, 493
2015-10-27 20:20:00.336158, 492
2015-10-27 20:20:00.336252, 499
2015-10-27 20:20:00.336318, 499
2015-10-27 20:20:00.352207, 496
2015-10-27 20:20:00.352316, 498
2015-10-27 20:20:00.352382, 507
2015-10-27 20:20:00.368164, 511
2015-10-27 20:20:00.368273, 510
2015-10-27 20:20:00.368340, 511
2015-10-27 20:20:00.383973, 510
2015-10-27 20:20:00.384083, 512
2015-10-27 20:20:00.384150, 519
2015-10-27 20:20:00.384213, 526
2015-10-27 20:20:00.400011, 523
2015-10-27 20:20:00.400102, 510
2015-10-27 20:20:00.400168, 502
2015-10-27 20:20:00.416124, 519
2015-10-27 20:20:00.416215, 560
2015-10-27 20:20:00.416280, 642
2015-10-27 20:20:00.432026, 735
2015-10-27 20:20:00.432114, 815
2015-10-27 20:20:00.432179, 879
2015-10-27 20:20:00.447955, 868
2015-10-27 20:20:00.448044, 747
2015-10-27 20:20:00.448109, 548
2015-10-27 20:20:00.464079, 417
2015-10-27 20:20:00.464172, 430
2015-10-27 20:20:00.464236, 492
2015-10-27 20:20:00.480247, 531
2015-10-27 20:20:00.480338, 542
2015-10-27 20:20:00.480403, 536
2015-10-27 20:20:00.496125, 532
2015-10-27 20:20:00.496216, 540
2015-10-27 20:20:00.496280, 547
2015-10-27 20:20:00.511987, 550
2015-10-27 20:20:00.512137, 551
2015-10-27 20:20:00.512267, 553
2015-10-27 20:20:00.528106, 555
2015-10-27 20:20:00.528253, 558
2015-10-27 20:20:00.528380, 555
2015-10-27 20:20:00.543947, 558
2015-10-27 20:20:00.544117, 556
2015-10-27 20:20:00.544196, 555
2015-10-27 20:20:00.560172, 556
2015-10-27 20:20:00.560269, 556
2015-10-27 20:20:00.560334, 553
2015-10-27 20:20:00.576088, 553
2015-10-27 20:20:00.576186, 561
2015-10-27 20:20:00.576252, 563
2015-10-27 20:20:00.591981, 561
2015-10-27 20:20:00.592115, 562
2015-10-27 20:20:00.592226, 565
2015-10-27 20:20:00.608002, 569
2015-10-27 20:20:00.608157, 572
2015-10-27 20:20:00.608225, 573
2015-10-27 20:20:00.624124, 578
2015-10-27 20:20:00.624332, 582
2015-10-27 20:20:00.624402, 587
2015-10-27 20:20:00.624465, 598
2015-10-27 20:20:00.640113, 604
2015-10-27 20:20:00.640204, 608
2015-10-27 20:20:00.640268, 613
2015-10-27 20:20:00.656149, 617
2015-10-27 20:20:00.656240, 625
2015-10-27 20:20:00.656305, 635
2015-10-27 20:20:00.672199, 644
2015-10-27 20:20:00.672289, 650
2015-10-27 20:20:00.672355, 652
2015-10-27 20:20:00.688112, 651
2015-10-27 20:20:00.688206, 652
2015-10-27 20:20:00.688271, 655
2015-10-27 20:20:00.704260, 652
2015-10-27 20:20:00.704359, 645
2015-10-27 20:20:00.704424, 643
2015-10-27 20:20:00.720172, 644
2015-10-27 20:20:00.720310, 635
2015-10-27 20:20:00.720430, 617
2015-10-27 20:20:00.736248, 596
2015-10-27 20:20:00.736344, 582
2015-10-27 20:20:00.736391, 573
2015-10-27 20:20:00.751799, 556
2015-10-27 20:20:00.751852, 541
2015-10-27 20:20:00.751888, 528
2015-10-27 20:20:00.767800, 513
2015-10-27 20:20:00.767863, 496
2015-10-27 20:20:00.767907, 493
2015-10-27 20:20:00.783829, 495
2015-10-27 20:20:00.783882, 491
2015-10-27 20:20:00.783918, 479
2015-10-27 20:20:00.799800, 471
2015-10-27 20:20:00.799915, 469
2015-10-27 20:20:00.800011, 466
2015-10-27 20:20:00.816006, 469
2015-10-27 20:20:00.816097, 476
2015-10-27 20:20:00.816166, 476
2015-10-27 20:20:00.831951, 472
2015-10-27 20:20:00.832042, 470
2015-10-27 20:20:00.832107, 473
2015-10-27 20:20:00.847909, 480
2015-10-27 20:20:00.848073, 483
2015-10-27 20:20:00.848233, 483
2015-10-27 20:20:00.863837, 483
2015-10-27 20:20:00.863957, 484
2015-10-27 20:20:00.864024, 479
2015-10-27 20:20:00.879957, 486
2015-10-27 20:20:00.880065, 493
2015-10-27 20:20:00.880133, 494
2015-10-27 20:20:00.880196, 496
2015-10-27 20:20:00.896003, 499
2015-10-27 20:20:00.896093, 504
2015-10-27 20:20:00.896158, 503
2015-10-27 20:20:00.911969, 501
2015-10-27 20:20:00.912059, 504
2015-10-27 20:20:00.912125, 503
2015-10-27 20:20:00.927849, 498
2015-10-27 20:20:00.927940, 497
2015-10-27 20:20:00.928004, 499
2015-10-27 20:20:00.944077, 495
2015-10-27 20:20:00.944168, 491
2015-10-27 20:20:00.944233, 489
2015-10-27 20:20:00.959839, 492
2015-10-27 20:20:00.959955, 492
2015-10-27 20:20:00.960030, 485
2015-10-27 20:20:00.975789, 484
2015-10-27 20:20:00.975841, 486
2015-10-27 20:20:00.975878, 485
2015-10-27 20:20:00.991748, 484
2015-10-27 20:20:00.991842, 486
2015-10-27 20:20:00.991917, 488
2015-10-27 20:20:01.007707, 486
2015-10-27 20:20:01.007759, 483
2015-10-27 20:20:01.007797, 481
2015-10-27 20:20:01.023965, 485
2015-10-27 20:20:01.024056, 487
2015-10-27 20:20:01.024121, 488
2015-10-27 20:20:01.039813, 490
2015-10-27 20:20:01.039910, 490
2015-10-27 20:20:01.039976, 485
2015-10-27 20:20:01.055792, 478
2015-10-27 20:20:01.055946, 479
2015-10-27 20:20:01.056071, 484
2015-10-27 20:20:01.071915, 486
2015-10-27 20:20:01.072008, 487
2015-10-27 20:20:01.072073, 488
2015-10-27 20:20:01.087734, 492
2015-10-27 20:20:01.087843, 489
2015-10-27 20:20:01.087910, 484
2015-10-27 20:20:01.103798, 483
2015-10-27 20:20:01.103906, 485
2015-10-27 20:20:01.103972, 487
2015-10-27 20:20:01.119899, 487
2015-10-27 20:20:01.120006, 490
2015-10-27 20:20:01.120072, 487
2015-10-27 20:20:01.120135, 483
2015-10-27 20:20:01.135808, 485
2015-10-27 20:20:01.135897, 485
2015-10-27 20:20:01.135962, 479
2015-10-27 20:20:01.151890, 479
2015-10-27 20:20:01.151980, 485
2015-10-27 20:20:01.152044, 482
2015-10-27 20:20:01.167986, 482
2015-10-27 20:20:01.168075, 485
2015-10-27 20:20:01.168140, 487
2015-10-27 20:20:01.183808, 487
2015-10-27 20:20:01.183963, 488
2015-10-27 20:20:01.184136, 487
2015-10-27 20:20:01.199895, 486
2015-10-27 20:20:01.199985, 483
2015-10-27 20:20:01.200050, 484
2015-10-27 20:20:01.215868, 486
2015-10-27 20:20:01.215958, 488
2015-10-27 20:20:01.216024, 487
2015-10-27 20:20:01.231863, 483
2015-10-27 20:20:01.231952, 484
2015-10-27 20:20:01.232017, 489
2015-10-27 20:20:01.247855, 490
2015-10-27 20:20:01.248001, 489
2015-10-27 20:20:01.248068, 490
2015-10-27 20:20:01.263852, 490
2015-10-27 20:20:01.263942, 489
2015-10-27 20:20:01.264005, 491
2015-10-27 20:20:01.279872, 496
2015-10-27 20:20:01.280037, 499
2015-10-27 20:20:01.280139, 498
2015-10-27 20:20:01.295760, 496
2015-10-27 20:20:01.295853, 495
2015-10-27 20:20:01.295918, 494
2015-10-27 20:20:01.311903, 500
2015-10-27 20:20:01.312020, 503
2015-10-27 20:20:01.312129, 507
2015-10-27 20:20:01.327737, 507
2015-10-27 20:20:01.327845, 507
2015-10-27 20:20:01.327911, 505
2015-10-27 20:20:01.343668, 506
2015-10-27 20:20:01.343778, 502
2015-10-27 20:20:01.343843, 500
2015-10-27 20:20:01.359682, 498
2015-10-27 20:20:01.359813, 499
2015-10-27 20:20:01.359881, 493
2015-10-27 20:20:01.359955, 482
2015-10-27 20:20:01.375796, 480
2015-10-27 20:20:01.375886, 478
2015-10-27 20:20:01.375951, 471
2015-10-27 20:20:01.391962, 467
2015-10-27 20:20:01.392051, 470
2015-10-27 20:20:01.392116, 475
2015-10-27 20:20:01.407978, 472
2015-10-27 20:20:01.408067, 472
2015-10-27 20:20:01.408132, 479
2015-10-27 20:20:01.423902, 482
2015-10-27 20:20:01.423994, 478
2015-10-27 20:20:01.424059, 479
2015-10-27 20:20:01.439912, 483
2015-10-27 20:20:01.440002, 485
2015-10-27 20:20:01.440067, 484
2015-10-27 20:20:01.455957, 486
2015-10-27 20:20:01.456046, 476
2015-10-27 20:20:01.456111, 466
2015-10-27 20:20:01.471878, 483
2015-10-27 20:20:01.471971, 521
2015-10-27 20:20:01.472036, 603
2015-10-27 20:20:01.487686, 708
2015-10-27 20:20:01.487830, 794
2015-10-27 20:20:01.487940, 865
2015-10-27 20:20:01.503968, 875
2015-10-27 20:20:01.504059, 768
2015-10-27 20:20:01.504124, 576
2015-10-27 20:20:01.519846, 425
2015-10-27 20:20:01.519971, 408
2015-10-27 20:20:01.520036, 456
2015-10-27 20:20:01.535785, 496
2015-10-27 20:20:01.535877, 513
2015-10-27 20:20:01.535944, 514
2015-10-27 20:20:01.551876, 510
2015-10-27 20:20:01.551973, 509
2015-10-27 20:20:01.552039, 507
2015-10-27 20:20:01.567757, 506
2015-10-27 20:20:01.567921, 508
2015-10-27 20:20:01.567997, 514
2015-10-27 20:20:01.583632, 514
2015-10-27 20:20:01.583744, 512
2015-10-27 20:20:01.583811, 511
2015-10-27 20:20:01.599810, 513
2015-10-27 20:20:01.599917, 515
2015-10-27 20:20:01.599983, 525
2015-10-27 20:20:01.600046, 529
2015-10-27 20:20:01.615811, 530
2015-10-27 20:20:01.615957, 527
2015-10-27 20:20:01.616084, 527
2015-10-27 20:20:01.631724, 531
2015-10-27 20:20:01.631814, 536
2015-10-27 20:20:01.631881, 542
2015-10-27 20:20:01.647833, 544
2015-10-27 20:20:01.647926, 544
2015-10-27 20:20:01.647990, 547
2015-10-27 20:20:01.663856, 556
2015-10-27 20:20:01.663962, 562
2015-10-27 20:20:01.664030, 568
2015-10-27 20:20:01.679922, 572
2015-10-27 20:20:01.680038, 580
2015-10-27 20:20:01.680106, 592
2015-10-27 20:20:01.695673, 604
2015-10-27 20:20:01.695877, 612
2015-10-27 20:20:01.695998, 614
2015-10-27 20:20:01.711923, 624
2015-10-27 20:20:01.712070, 643
2015-10-27 20:20:01.712151, 658
2015-10-27 20:20:01.727842, 664
2015-10-27 20:20:01.727933, 667
2015-10-27 20:20:01.727998, 677
2015-10-27 20:20:01.743768, 684
2015-10-27 20:20:01.743858, 680
2015-10-27 20:20:01.743923, 681
2015-10-27 20:20:01.759645, 684
2015-10-27 20:20:01.759735, 685
2015-10-27 20:20:01.759799, 680
2015-10-27 20:20:01.775794, 672
2015-10-27 20:20:01.775887, 667
2015-10-27 20:20:01.775952, 662
2015-10-27 20:20:01.791779, 649
2015-10-27 20:20:01.791876, 629
2015-10-27 20:20:01.791943, 621
2015-10-27 20:20:01.807633, 612
2015-10-27 20:20:01.807725, 600
2015-10-27 20:20:01.807792, 589
2015-10-27 20:20:01.823517, 578
2015-10-27 20:20:01.823646, 566
2015-10-27 20:20:01.823714, 553
2015-10-27 20:20:01.839609, 553
2015-10-27 20:20:01.839717, 553
2015-10-27 20:20:01.839783, 545
2015-10-27 20:20:01.855668, 541
2015-10-27 20:20:01.855814, 539
2015-10-27 20:20:01.855881, 538
2015-10-27 20:20:01.855944, 534
2015-10-27 20:20:01.871792, 530
2015-10-27 20:20:01.871932, 527
2015-10-27 20:20:01.872006, 522
2015-10-27 20:20:01.887856, 518
2015-10-27 20:20:01.887950, 512
2015-10-27 20:20:01.888016, 510
2015-10-27 20:20:01.903872, 507
2015-10-27 20:20:01.903962, 504
2015-10-27 20:20:01.904026, 503
2015-10-27 20:20:01.919836, 507
2015-10-27 20:20:01.919925, 506
2015-10-27 20:20:01.919990, 499
2015-10-27 20:20:01.935600, 495
2015-10-27 20:20:01.935690, 495
2015-10-27 20:20:01.935755, 496
2015-10-27 20:20:01.951565, 497
2015-10-27 20:20:01.951654, 499
2015-10-27 20:20:01.951717, 499
2015-10-27 20:20:01.967647, 497
2015-10-27 20:20:01.967740, 497
2015-10-27 20:20:01.967805, 499
2015-10-27 20:20:01.983891, 500
2015-10-27 20:20:01.984088, 498
2015-10-27 20:20:01.984200, 496
2015-10-27 20:20:01.999650, 498
2015-10-27 20:20:01.999740, 497
2015-10-27 20:20:01.999805, 497
2015-10-27 20:20:02.015551, 500
2015-10-27 20:20:02.015645, 502
2015-10-27 20:20:02.015711, 500
2015-10-27 20:20:02.031710, 495
2015-10-27 20:20:02.031803, 491
2015-10-27 20:20:02.031915, 492
2015-10-27 20:20:02.047666, 494
2015-10-27 20:20:02.047882, 492
2015-10-27 20:20:02.047964, 493
2015-10-27 20:20:02.063726, 493
2015-10-27 20:20:02.063832, 485
2015-10-27 20:20:02.063898, 478
2015-10-27 20:20:02.079737, 482
2015-10-27 20:20:02.079889, 488
2015-10-27 20:20:02.079975, 487
2015-10-27 20:20:02.095468, 486
2015-10-27 20:20:02.095573, 482
2015-10-27 20:20:02.095639, 482
2015-10-27 20:20:02.095701, 487
2015-10-27 20:20:02.111861, 487
2015-10-27 20:20:02.111954, 490
2015-10-27 20:20:02.112019, 489
2015-10-27 20:20:02.127784, 486
2015-10-27 20:20:02.127932, 488
2015-10-27 20:20:02.128003, 489
2015-10-27 20:20:02.143718, 487
2015-10-27 20:20:02.143809, 484
2015-10-27 20:20:02.143874, 483
2015-10-27 20:20:02.159735, 487
2015-10-27 20:20:02.159829, 493
2015-10-27 20:20:02.159894, 492
2015-10-27 20:20:02.175694, 492
2015-10-27 20:20:02.175783, 497
2015-10-27 20:20:02.175848, 500
2015-10-27 20:20:02.191549, 501
2015-10-27 20:20:02.191643, 505
2015-10-27 20:20:02.191707, 513
2015-10-27 20:20:02.207480, 508
2015-10-27 20:20:02.207571, 504
2015-10-27 20:20:02.207636, 506
2015-10-27 20:20:02.223548, 510
2015-10-27 20:20:02.223640, 510
2015-10-27 20:20:02.223704, 509
2015-10-27 20:20:02.239775, 508
2015-10-27 20:20:02.239871, 509
2015-10-27 20:20:02.239937, 507
2015-10-27 20:20:02.255582, 505
2015-10-27 20:20:02.255675, 503
2015-10-27 20:20:02.255741, 502
2015-10-27 20:20:02.271698, 495
2015-10-27 20:20:02.271795, 490
2015-10-27 20:20:02.271861, 494
2015-10-27 20:20:02.287701, 499
2015-10-27 20:20:02.287820, 497
2015-10-27 20:20:02.287889, 495
2015-10-27 20:20:02.303743, 493
2015-10-27 20:20:02.303913, 492
2015-10-27 20:20:02.304036, 491
2015-10-27 20:20:02.319591, 494
2015-10-27 20:20:02.319698, 494
2015-10-27 20:20:02.319765, 493
2015-10-27 20:20:02.335615, 492
2015-10-27 20:20:02.335733, 493
2015-10-27 20:20:02.335800, 496
2015-10-27 20:20:02.335863, 500
2015-10-27 20:20:02.351455, 502
2015-10-27 20:20:02.351543, 506
2015-10-27 20:20:02.351608, 511
2015-10-27 20:20:02.367640, 515
2015-10-27 20:20:02.367788, 516
2015-10-27 20:20:02.367910, 526
2015-10-27 20:20:02.383523, 534
2015-10-27 20:20:02.383612, 542
2015-10-27 20:20:02.383677, 552
2015-10-27 20:20:02.399580, 556
2015-10-27 20:20:02.399670, 557
2015-10-27 20:20:02.399736, 558
2015-10-27 20:20:02.415424, 557
2015-10-27 20:20:02.415514, 564
2015-10-27 20:20:02.415578, 565
2015-10-27 20:20:02.431536, 563
2015-10-27 20:20:02.431625, 556
2015-10-27 20:20:02.431690, 553
2015-10-27 20:20:02.447538, 555
2015-10-27 20:20:02.447628, 560
2015-10-27 20:20:02.447693, 566
2015-10-27 20:20:02.463462, 567
2015-10-27 20:20:02.463554, 563
2015-10-27 20:20:02.463621, 561
2015-10-27 20:20:02.479579, 561
2015-10-27 20:20:02.479670, 569
2015-10-27 20:20:02.479734, 573
2015-10-27 20:20:02.495349, 575
2015-10-27 20:20:02.495442, 578
2015-10-27 20:20:02.495508, 577
2015-10-27 20:20:02.511485, 575
2015-10-27 20:20:02.511576, 578
2015-10-27 20:20:02.511642, 579
2015-10-27 20:20:02.527369, 569
2015-10-27 20:20:02.527466, 555
2015-10-27 20:20:02.527531, 563
2015-10-27 20:20:02.543351, 593
2015-10-27 20:20:02.543457, 650
2015-10-27 20:20:02.543522, 748
2015-10-27 20:20:02.559387, 840
2015-10-27 20:20:02.559495, 917
2015-10-27 20:20:02.559565, 952
2015-10-27 20:20:02.575529, 885
2015-10-27 20:20:02.575635, 717
2015-10-27 20:20:02.575701, 524
2015-10-27 20:20:02.575762, 453
2015-10-27 20:20:02.591515, 492
2015-10-27 20:20:02.591604, 541
2015-10-27 20:20:02.591669, 562
2015-10-27 20:20:02.607358, 561
2015-10-27 20:20:02.607448, 562
2015-10-27 20:20:02.607513, 568
2015-10-27 20:20:02.623363, 568
2015-10-27 20:20:02.623454, 564
2015-10-27 20:20:02.623519, 563
2015-10-27 20:20:02.639562, 567
2015-10-27 20:20:02.639652, 569
2015-10-27 20:20:02.639718, 568
2015-10-27 20:20:02.655589, 568
2015-10-27 20:20:02.655680, 573
2015-10-27 20:20:02.655745, 574
2015-10-27 20:20:02.671337, 573
2015-10-27 20:20:02.671426, 570
2015-10-27 20:20:02.671489, 567
2015-10-27 20:20:02.687602, 567
2015-10-27 20:20:02.687692, 571
2015-10-27 20:20:02.687757, 576
2015-10-27 20:20:02.703564, 573
2015-10-27 20:20:02.703751, 572
2015-10-27 20:20:02.703829, 573
2015-10-27 20:20:02.719505, 576
2015-10-27 20:20:02.719596, 581
2015-10-27 20:20:02.719660, 582
2015-10-27 20:20:02.735342, 583
2015-10-27 20:20:02.735496, 582
2015-10-27 20:20:02.735629, 587
2015-10-27 20:20:02.751445, 594
2015-10-27 20:20:02.751538, 598
2015-10-27 20:20:02.751603, 603
2015-10-27 20:20:02.767406, 607
2015-10-27 20:20:02.767584, 613
2015-10-27 20:20:02.767663, 618
2015-10-27 20:20:02.783387, 620
2015-10-27 20:20:02.783479, 623
2015-10-27 20:20:02.783544, 629
2015-10-27 20:20:02.799220, 637
2015-10-27 20:20:02.799326, 644
2015-10-27 20:20:02.799391, 651
2015-10-27 20:20:02.815234, 653
2015-10-27 20:20:02.815343, 653
2015-10-27 20:20:02.815410, 648
2015-10-27 20:20:02.831210, 637
2015-10-27 20:20:02.831332, 627
2015-10-27 20:20:02.831399, 622
2015-10-27 20:20:02.831461, 615
2015-10-27 20:20:02.847407, 608
2015-10-27 20:20:02.847497, 598
2015-10-27 20:20:02.847563, 590
2015-10-27 20:20:02.863397, 572
2015-10-27 20:20:02.863488, 550
2015-10-27 20:20:02.863553, 534
2015-10-27 20:20:02.879430, 522
2015-10-27 20:20:02.879594, 506
2015-10-27 20:20:02.879696, 489
2015-10-27 20:20:02.895365, 479
2015-10-27 20:20:02.895458, 472
2015-10-27 20:20:02.895523, 462
2015-10-27 20:20:02.911550, 458
2015-10-27 20:20:02.911640, 458
2015-10-27 20:20:02.911704, 458
2015-10-27 20:20:02.927515, 456
2015-10-27 20:20:02.927623, 452
2015-10-27 20:20:02.927696, 449
2015-10-27 20:20:02.943519, 451
2015-10-27 20:20:02.943610, 450
2015-10-27 20:20:02.943674, 451
2015-10-27 20:20:02.959346, 455
2015-10-27 20:20:02.959437, 453
2015-10-27 20:20:02.959501, 446
2015-10-27 20:20:02.975402, 442
2015-10-27 20:20:02.975493, 445
2015-10-27 20:20:02.975558, 447
2015-10-27 20:20:02.991443, 445
2015-10-27 20:20:02.991536, 443
2015-10-27 20:20:02.991602, 441
2015-10-27 20:20:03.007372, 442
2015-10-27 20:20:03.007518, 441
2015-10-27 20:20:03.007604, 443
2015-10-27 20:20:03.023334, 444
2015-10-27 20:20:03.023426, 441
2015-10-27 20:20:03.023491, 446
2015-10-27 20:20:03.039358, 451
2015-10-27 20:20:03.039466, 453
2015-10-27 20:20:03.039537, 453
2015-10-27 20:20:03.055320, 452
2015-10-27 20:20:03.055427, 448
2015-10-27 20:20:03.055494, 448
2015-10-27 20:20:03.071160, 445
2015-10-27 20:20:03.071270, 441
2015-10-27 20:20:03.071338, 444
2015-10-27 20:20:03.071402, 443
2015-10-27 20:20:03.087406, 443
2015-10-27 20:20:03.087496, 445
2015-10-27 20:20:03.087562, 451
2015-10-27 20:20:03.103401, 459
2015-10-27 20:20:03.103492, 457
2015-10-27 20:20:03.103557, 453
2015-10-27 20:20:03.119591, 450
2015-10-27 20:20:03.119720, 449
2015-10-27 20:20:03.119788, 446
2015-10-27 20:20:03.135370, 446
2015-10-27 20:20:03.135477, 449
2015-10-27 20:20:03.135544, 450
2015-10-27 20:20:03.151416, 447
2015-10-27 20:20:03.151509, 447
2015-10-27 20:20:03.151574, 451
2015-10-27 20:20:03.167432, 453
2015-10-27 20:20:03.167524, 454
2015-10-27 20:20:03.167589, 456
2015-10-27 20:20:03.184245, 458
2015-10-27 20:20:03.184354, 458
2015-10-27 20:20:03.184419, 455
2015-10-27 20:20:03.199281, 452
2015-10-27 20:20:03.199370, 460
2015-10-27 20:20:03.199456, 464
2015-10-27 20:20:03.215398, 467
2015-10-27 20:20:03.215512, 467
2015-10-27 20:20:03.215578, 462
2015-10-27 20:20:03.231213, 458
2015-10-27 20:20:03.231306, 459
2015-10-27 20:20:03.231373, 462
2015-10-27 20:20:03.247411, 461
2015-10-27 20:20:03.247506, 460
2015-10-27 20:20:03.247579, 459
2015-10-27 20:20:03.263151, 464
2015-10-27 20:20:03.263313, 462
2015-10-27 20:20:03.263464, 461
2015-10-27 20:20:03.279429, 464
2015-10-27 20:20:03.279590, 469
2015-10-27 20:20:03.279696, 468
2015-10-27 20:20:03.295365, 465
2015-10-27 20:20:03.295473, 466
2015-10-27 20:20:03.295538, 469
2015-10-27 20:20:03.311205, 467
2015-10-27 20:20:03.311313, 465
2015-10-27 20:20:03.311378, 468
2015-10-27 20:20:03.311440, 473
2015-10-27 20:20:03.327462, 468
2015-10-27 20:20:03.327555, 467
2015-10-27 20:20:03.327619, 474
2015-10-27 20:20:03.343381, 476
2015-10-27 20:20:03.343471, 476
2015-10-27 20:20:03.343537, 479
2015-10-27 20:20:03.359407, 484
2015-10-27 20:20:03.359496, 479
2015-10-27 20:20:03.359560, 480
2015-10-27 20:20:03.375257, 483
2015-10-27 20:20:03.375346, 483
2015-10-27 20:20:03.375411, 481
2015-10-27 20:20:03.391107, 481
2015-10-27 20:20:03.391195, 485
2015-10-27 20:20:03.391260, 491
2015-10-27 20:20:03.407203, 489
2015-10-27 20:20:03.407292, 485
2015-10-27 20:20:03.407357, 486
2015-10-27 20:20:03.423355, 490
2015-10-27 20:20:03.423449, 489
2015-10-27 20:20:03.423514, 490
2015-10-27 20:20:03.439266, 496
2015-10-27 20:20:03.439357, 493
2015-10-27 20:20:03.439421, 487
2015-10-27 20:20:03.455305, 490
2015-10-27 20:20:03.455402, 494
2015-10-27 20:20:03.455468, 492
2015-10-27 20:20:03.471299, 491
2015-10-27 20:20:03.471391, 492
2015-10-27 20:20:03.471460, 493
2015-10-27 20:20:03.487358, 488
2015-10-27 20:20:03.487511, 480
2015-10-27 20:20:03.487639, 472
2015-10-27 20:20:03.503267, 469
2015-10-27 20:20:03.503388, 467
2015-10-27 20:20:03.503454, 469
2015-10-27 20:20:03.519019, 474
2015-10-27 20:20:03.519145, 471
2015-10-27 20:20:03.519213, 475
2015-10-27 20:20:03.534972, 482
2015-10-27 20:20:03.535079, 487
2015-10-27 20:20:03.535145, 486
2015-10-27 20:20:03.551187, 483
2015-10-27 20:20:03.551296, 479
2015-10-27 20:20:03.551362, 480
2015-10-27 20:20:03.551424, 484
2015-10-27 20:20:03.567191, 483
2015-10-27 20:20:03.567280, 478
2015-10-27 20:20:03.567344, 477
2015-10-27 20:20:03.583279, 474
2015-10-27 20:20:03.583368, 461
2015-10-27 20:20:03.583433, 456
2015-10-27 20:20:03.599390, 475
2015-10-27 20:20:03.599559, 523
2015-10-27 20:20:03.599747, 617
2015-10-27 20:20:03.615279, 716
2015-10-27 20:20:03.615369, 799
2015-10-27 20:20:03.615433, 863
2015-10-27 20:20:03.631237, 842
2015-10-27 20:20:03.631326, 711
2015-10-27 20:20:03.631411, 512
2015-10-27 20:20:03.647044, 388
2015-10-27 20:20:03.647207, 394
2015-10-27 20:20:03.647326, 443
2015-10-27 20:20:03.662953, 475
2015-10-27 20:20:03.663042, 480
2015-10-27 20:20:03.663107, 486
2015-10-27 20:20:03.679147, 489
2015-10-27 20:20:03.679295, 490
2015-10-27 20:20:03.679402, 490
2015-10-27 20:20:03.695238, 491
2015-10-27 20:20:03.695382, 499
2015-10-27 20:20:03.695472, 500
2015-10-27 20:20:03.711230, 490
2015-10-27 20:20:03.711381, 493
2015-10-27 20:20:03.711471, 505
2015-10-27 20:20:03.727165, 511
2015-10-27 20:20:03.727307, 512
2015-10-27 20:20:03.727419, 510
2015-10-27 20:20:03.742927, 509
2015-10-27 20:20:03.743072, 507
2015-10-27 20:20:03.743184, 508
2015-10-27 20:20:03.758863, 511
2015-10-27 20:20:03.758918, 514
2015-10-27 20:20:03.758989, 516
2015-10-27 20:20:03.774853, 515
2015-10-27 20:20:03.774918, 518
2015-10-27 20:20:03.774955, 525
2015-10-27 20:20:03.790820, 529
2015-10-27 20:20:03.790886, 532
2015-10-27 20:20:03.790924, 538
2015-10-27 20:20:03.806889, 542
2015-10-27 20:20:03.806956, 543
2015-10-27 20:20:03.806993, 544
2015-10-27 20:20:03.807028, 549
2015-10-27 20:20:03.822921, 564
2015-10-27 20:20:03.822973, 576
2015-10-27 20:20:03.823010, 584
2015-10-27 20:20:03.839081, 590
2015-10-27 20:20:03.839169, 593
2015-10-27 20:20:03.839233, 597
2015-10-27 20:20:03.854991, 605
2015-10-27 20:20:03.855136, 614
2015-10-27 20:20:03.855241, 620
2015-10-27 20:20:03.870895, 624
2015-10-27 20:20:03.870958, 624
2015-10-27 20:20:03.871003, 622
2015-10-27 20:20:03.887145, 618
2015-10-27 20:20:03.887239, 615
2015-10-27 20:20:03.887306, 610
2015-10-27 20:20:03.903124, 597
2015-10-27 20:20:03.903214, 584
2015-10-27 20:20:03.903332, 574
2015-10-27 20:20:03.918946, 563
2015-10-27 20:20:03.919037, 549
2015-10-27 20:20:03.919103, 537
2015-10-27 20:20:03.935020, 524
2015-10-27 20:20:03.935115, 509
2015-10-27 20:20:03.935180, 489
2015-10-27 20:20:03.950960, 479
2015-10-27 20:20:03.951051, 472
2015-10-27 20:20:03.951117, 466
2015-10-27 20:20:03.966897, 458
2015-10-27 20:20:03.966952, 452
2015-10-27 20:20:03.966989, 450
2015-10-27 20:20:03.982901, 449
2015-10-27 20:20:03.982957, 442
2015-10-27 20:20:03.982994, 440
2015-10-27 20:20:03.999117, 448
2015-10-27 20:20:03.999280, 448
2015-10-27 20:20:03.999349, 445
2015-10-27 20:20:04.015023, 448
2015-10-27 20:20:04.015131, 450
2015-10-27 20:20:04.015197, 453
2015-10-27 20:20:04.030949, 456
2015-10-27 20:20:04.031125, 453
2015-10-27 20:20:04.031255, 450
2015-10-27 20:20:04.047031, 456
2015-10-27 20:20:04.047139, 456
2015-10-27 20:20:04.047206, 453
2015-10-27 20:20:04.047269, 454
2015-10-27 20:20:04.062993, 454
2015-10-27 20:20:04.063083, 457
2015-10-27 20:20:04.063148, 461
2015-10-27 20:20:04.078971, 464
2015-10-27 20:20:04.079061, 463
2015-10-27 20:20:04.079126, 462
2015-10-27 20:20:04.095224, 462
2015-10-27 20:20:04.095313, 466
2015-10-27 20:20:04.095378, 466
2015-10-27 20:20:04.110980, 463
2015-10-27 20:20:04.111130, 465
2015-10-27 20:20:04.111293, 469
2015-10-27 20:20:04.127134, 468
2015-10-27 20:20:04.127223, 465
2015-10-27 20:20:04.127302, 467
2015-10-27 20:20:04.142959, 468
2015-10-27 20:20:04.143052, 469
2015-10-27 20:20:04.143118, 469
2015-10-27 20:20:04.159099, 470
2015-10-27 20:20:04.159190, 470
2015-10-27 20:20:04.159255, 471
2015-10-27 20:20:04.175199, 468
2015-10-27 20:20:04.175292, 467
2015-10-27 20:20:04.175358, 469
2015-10-27 20:20:04.191234, 466
2015-10-27 20:20:04.191326, 462
2015-10-27 20:20:04.191398, 467
2015-10-27 20:20:04.207083, 472
2015-10-27 20:20:04.207175, 471
2015-10-27 20:20:04.207241, 470
2015-10-27 20:20:04.223031, 470
2015-10-27 20:20:04.223127, 473
2015-10-27 20:20:04.223193, 472
2015-10-27 20:20:04.238902, 473
2015-10-27 20:20:04.238993, 473
2015-10-27 20:20:04.239057, 472
2015-10-27 20:20:04.254869, 474
2015-10-27 20:20:04.254979, 476
2015-10-27 20:20:04.255045, 475
2015-10-27 20:20:04.271034, 472
2015-10-27 20:20:04.271228, 471
2015-10-27 20:20:04.271350, 472
2015-10-27 20:20:04.286974, 470
2015-10-27 20:20:04.287081, 468
2015-10-27 20:20:04.287147, 468
2015-10-27 20:20:04.287209, 470
2015-10-27 20:20:04.303083, 466
2015-10-27 20:20:04.303177, 467
2015-10-27 20:20:04.303243, 469
2015-10-27 20:20:04.318892, 472
2015-10-27 20:20:04.318983, 475
2015-10-27 20:20:04.319049, 473
2015-10-27 20:20:04.334879, 472
2015-10-27 20:20:04.334969, 472
2015-10-27 20:20:04.335034, 471
2015-10-27 20:20:04.350981, 473
2015-10-27 20:20:04.351070, 477
2015-10-27 20:20:04.351134, 476
2015-10-27 20:20:04.366953, 477
2015-10-27 20:20:04.367042, 477
2015-10-27 20:20:04.367106, 480
2015-10-27 20:20:04.382995, 486
2015-10-27 20:20:04.383085, 486
2015-10-27 20:20:04.383201, 483
2015-10-27 20:20:04.398992, 484
2015-10-27 20:20:04.399082, 485
2015-10-27 20:20:04.399147, 479
2015-10-27 20:20:04.414847, 482
2015-10-27 20:20:04.414936, 487
2015-10-27 20:20:04.415001, 487
2015-10-27 20:20:04.431120, 488
2015-10-27 20:20:04.431266, 490
2015-10-27 20:20:04.431349, 498
2015-10-27 20:20:04.447043, 498
2015-10-27 20:20:04.447199, 495
2015-10-27 20:20:04.447331, 495
2015-10-27 20:20:04.463156, 498
2015-10-27 20:20:04.463369, 501
2015-10-27 20:20:04.463451, 498
2015-10-27 20:20:04.478934, 500
2015-10-27 20:20:04.479027, 507
2015-10-27 20:20:04.479092, 503
2015-10-27 20:20:04.495021, 502
2015-10-27 20:20:04.495189, 504
2015-10-27 20:20:04.495319, 500
2015-10-27 20:20:04.510880, 496
2015-10-27 20:20:04.511026, 493
2015-10-27 20:20:04.511097, 492
2015-10-27 20:20:04.527016, 492
2015-10-27 20:20:04.527167, 486
2015-10-27 20:20:04.527233, 482
2015-10-27 20:20:04.527294, 486
2015-10-27 20:20:04.543138, 488
2015-10-27 20:20:04.543266, 488
2015-10-27 20:20:04.543335, 488
2015-10-27 20:20:04.559029, 487
2015-10-27 20:20:04.559119, 490
2015-10-27 20:20:04.559184, 496
2015-10-27 20:20:04.574993, 499
2015-10-27 20:20:04.575173, 501
2015-10-27 20:20:04.575248, 499
2015-10-27 20:20:04.590990, 496
2015-10-27 20:20:04.591084, 495
2015-10-27 20:20:04.591148, 493
2015-10-27 20:20:04.606935, 495
2015-10-27 20:20:04.607026, 495
2015-10-27 20:20:04.607092, 484
2015-10-27 20:20:04.622819, 485
2015-10-27 20:20:04.622960, 508
2015-10-27 20:20:04.623092, 563
2015-10-27 20:20:04.638792, 661
2015-10-27 20:20:04.638883, 754
2015-10-27 20:20:04.638949, 828
2015-10-27 20:20:04.654993, 885
2015-10-27 20:20:04.655087, 848
2015-10-27 20:20:04.655152, 694
2015-10-27 20:20:04.670857, 488
2015-10-27 20:20:04.670948, 389
2015-10-27 20:20:04.671013, 418
2015-10-27 20:20:04.687015, 472
2015-10-27 20:20:04.687110, 498
2015-10-27 20:20:04.687174, 507
2015-10-27 20:20:04.702798, 504
2015-10-27 20:20:04.702896, 501
2015-10-27 20:20:04.702962, 501
2015-10-27 20:20:04.718912, 505
2015-10-27 20:20:04.719040, 508
2015-10-27 20:20:04.719106, 509
2015-10-27 20:20:04.734808, 509
2015-10-27 20:20:04.734900, 511
2015-10-27 20:20:04.734965, 513
2015-10-27 20:20:04.750672, 508
2015-10-27 20:20:04.750780, 511
2015-10-27 20:20:04.750846, 516
2015-10-27 20:20:04.766743, 523
2015-10-27 20:20:04.766851, 525
2015-10-27 20:20:04.766920, 524
2015-10-27 20:20:04.782905, 528
2015-10-27 20:20:04.783013, 526
2015-10-27 20:20:04.783080, 522
2015-10-27 20:20:04.783142, 522
2015-10-27 20:20:04.798749, 533
2015-10-27 20:20:04.798838, 539
2015-10-27 20:20:04.798904, 540
2015-10-27 20:20:04.814997, 543
2015-10-27 20:20:04.815156, 543
2015-10-27 20:20:04.815272, 540
2015-10-27 20:20:04.830748, 538
2015-10-27 20:20:04.830918, 542
2015-10-27 20:20:04.831058, 545
2015-10-27 20:20:04.846905, 548
2015-10-27 20:20:04.847052, 553
2015-10-27 20:20:04.847173, 562
2015-10-27 20:20:04.862696, 568
2015-10-27 20:20:04.862783, 570
2015-10-27 20:20:04.862848, 570
2015-10-27 20:20:04.878665, 582
2015-10-27 20:20:04.878754, 594
2015-10-27 20:20:04.878820, 601
2015-10-27 20:20:04.894663, 600
2015-10-27 20:20:04.894754, 595
2015-10-27 20:20:04.894819, 592
2015-10-27 20:20:04.910705, 593
2015-10-27 20:20:04.910795, 592
2015-10-27 20:20:04.910858, 589
2015-10-27 20:20:04.926883, 581
2015-10-27 20:20:04.926972, 571
2015-10-27 20:20:04.927037, 560
2015-10-27 20:20:04.942785, 550
2015-10-27 20:20:04.942877, 539
2015-10-27 20:20:04.942941, 527
2015-10-27 20:20:04.958748, 514
2015-10-27 20:20:04.958961, 502
2015-10-27 20:20:04.959050, 485
2015-10-27 20:20:04.974678, 468
2015-10-27 20:20:04.974771, 463
2015-10-27 20:20:04.974838, 458
2015-10-27 20:20:04.990621, 450
2015-10-27 20:20:04.990732, 443
2015-10-27 20:20:04.990798, 441
2015-10-27 20:20:05.006685, 441
2015-10-27 20:20:05.006794, 436
2015-10-27 20:20:05.006861, 432
2015-10-27 20:20:05.022794, 430
2015-10-27 20:20:05.023068, 427
2015-10-27 20:20:05.023180, 431
2015-10-27 20:20:05.023248, 438
2015-10-27 20:20:05.038840, 443
2015-10-27 20:20:05.038954, 442
2015-10-27 20:20:05.039124, 437
2015-10-27 20:20:05.054900, 441
2015-10-27 20:20:05.054991, 447
2015-10-27 20:20:05.055056, 447
2015-10-27 20:20:05.070883, 445
2015-10-27 20:20:05.070975, 449
2015-10-27 20:20:05.071040, 456
2015-10-27 20:20:05.086678, 460
2015-10-27 20:20:05.086829, 460
2015-10-27 20:20:05.086966, 462
2015-10-27 20:20:05.102908, 467
2015-10-27 20:20:05.102998, 466
2015-10-27 20:20:05.103062, 462
2015-10-27 20:20:05.118872, 461
2015-10-27 20:20:05.118967, 464
2015-10-27 20:20:05.119032, 466
2015-10-27 20:20:05.134766, 471
2015-10-27 20:20:05.134858, 477
2015-10-27 20:20:05.134923, 476
2015-10-27 20:20:05.150855, 471
2015-10-27 20:20:05.150949, 477
2015-10-27 20:20:05.151014, 489
2015-10-27 20:20:05.166628, 496
2015-10-27 20:20:05.166848, 493
2015-10-27 20:20:05.166982, 492
2015-10-27 20:20:05.182795, 495
2015-10-27 20:20:05.182947, 495
2015-10-27 20:20:05.183071, 493
2015-10-27 20:20:05.198876, 495
2015-10-27 20:20:05.199030, 492
2015-10-27 20:20:05.199161, 494
2015-10-27 20:20:05.214759, 496
2015-10-27 20:20:05.214851, 497
2015-10-27 20:20:05.214929, 499
2015-10-27 20:20:05.230548, 499
2015-10-27 20:20:05.230656, 500
2015-10-27 20:20:05.230724, 501
2015-10-27 20:20:05.246755, 500
2015-10-27 20:20:05.246890, 499
2015-10-27 20:20:05.246957, 500
2015-10-27 20:20:05.262767, 503
2015-10-27 20:20:05.262876, 499
2015-10-27 20:20:05.262962, 494
2015-10-27 20:20:05.263026, 492
2015-10-27 20:20:05.278963, 495
2015-10-27 20:20:05.279108, 495
2015-10-27 20:20:05.279235, 494
2015-10-27 20:20:05.294750, 493
2015-10-27 20:20:05.294913, 495
2015-10-27 20:20:05.295044, 496
2015-10-27 20:20:05.310691, 494
2015-10-27 20:20:05.310780, 494
2015-10-27 20:20:05.310844, 498
2015-10-27 20:20:05.326576, 501
2015-10-27 20:20:05.326666, 499
2015-10-27 20:20:05.326731, 499
2015-10-27 20:20:05.342844, 499
2015-10-27 20:20:05.343059, 496
2015-10-27 20:20:05.343144, 498
2015-10-27 20:20:05.358794, 500
2015-10-27 20:20:05.358884, 501
2015-10-27 20:20:05.358948, 498
2015-10-27 20:20:05.374813, 492
2015-10-27 20:20:05.374908, 494
2015-10-27 20:20:05.374973, 497
2015-10-27 20:20:05.390606, 499
2015-10-27 20:20:05.390710, 502
2015-10-27 20:20:05.390778, 503
2015-10-27 20:20:05.406797, 503
2015-10-27 20:20:05.406892, 500
2015-10-27 20:20:05.406957, 499
2015-10-27 20:20:05.422638, 504
2015-10-27 20:20:05.422786, 511
2015-10-27 20:20:05.422869, 510
2015-10-27 20:20:05.438782, 508
2015-10-27 20:20:05.438902, 509
2015-10-27 20:20:05.438968, 507
2015-10-27 20:20:05.454858, 506
2015-10-27 20:20:05.454954, 508
2015-10-27 20:20:05.455019, 513
2015-10-27 20:20:05.470706, 512
2015-10-27 20:20:05.470815, 513
2015-10-27 20:20:05.470880, 518
2015-10-27 20:20:05.486472, 513
2015-10-27 20:20:05.486614, 511
2015-10-27 20:20:05.486684, 511
2015-10-27 20:20:05.502475, 511
2015-10-27 20:20:05.502583, 516
2015-10-27 20:20:05.502649, 515
2015-10-27 20:20:05.502712, 513
2015-10-27 20:20:05.518736, 513
2015-10-27 20:20:05.518825, 515
2015-10-27 20:20:05.518889, 514
2015-10-27 20:20:05.534555, 509
2015-10-27 20:20:05.534713, 499
2015-10-27 20:20:05.534789, 493
2015-10-27 20:20:05.550510, 489
2015-10-27 20:20:05.550600, 491
2015-10-27 20:20:05.550664, 498
2015-10-27 20:20:05.566668, 498
2015-10-27 20:20:05.566758, 499
2015-10-27 20:20:05.566823, 500
2015-10-27 20:20:05.582815, 500
2015-10-27 20:20:05.582908, 496
2015-10-27 20:20:05.582972, 494
2015-10-27 20:20:05.598505, 497
2015-10-27 20:20:05.598596, 502
2015-10-27 20:20:05.598662, 497
2015-10-27 20:20:05.614483, 490
2015-10-27 20:20:05.614574, 494
2015-10-27 20:20:05.614639, 483
2015-10-27 20:20:05.630754, 477
2015-10-27 20:20:05.630848, 499
2015-10-27 20:20:05.630912, 541
2015-10-27 20:20:05.646723, 627
2015-10-27 20:20:05.646885, 722
2015-10-27 20:20:05.646954, 799
2015-10-27 20:20:05.662667, 861
2015-10-27 20:20:05.662815, 851
2015-10-27 20:20:05.662920, 729
2015-10-27 20:20:05.678450, 534
2015-10-27 20:20:05.678623, 401
2015-10-27 20:20:05.678691, 400
2015-10-27 20:20:05.694679, 459
2015-10-27 20:20:05.694836, 499
2015-10-27 20:20:05.694964, 514
2015-10-27 20:20:05.710546, 512
2015-10-27 20:20:05.710716, 510
2015-10-27 20:20:05.710836, 510
2015-10-27 20:20:05.726509, 510
2015-10-27 20:20:05.726616, 509
2015-10-27 20:20:05.726682, 503
2015-10-27 20:20:05.742692, 508
2015-10-27 20:20:05.742803, 516
2015-10-27 20:20:05.742873, 514
2015-10-27 20:20:05.758375, 513
2015-10-27 20:20:05.758484, 518
2015-10-27 20:20:05.758551, 517
2015-10-27 20:20:05.758613, 513
2015-10-27 20:20:05.774530, 514
2015-10-27 20:20:05.774661, 514
2015-10-27 20:20:05.774730, 513
2015-10-27 20:20:05.790552, 513
2015-10-27 20:20:05.790641, 517
2015-10-27 20:20:05.790706, 520
2015-10-27 20:20:05.806452, 522
2015-10-27 20:20:05.806540, 521
2015-10-27 20:20:05.806616, 520
2015-10-27 20:20:05.822456, 523
2015-10-27 20:20:05.822547, 526
2015-10-27 20:20:05.822612, 526
2015-10-27 20:20:05.838552, 528
2015-10-27 20:20:05.838647, 534
2015-10-27 20:20:05.838713, 535
2015-10-27 20:20:05.854606, 539
2015-10-27 20:20:05.854696, 547
2015-10-27 20:20:05.854762, 551
2015-10-27 20:20:05.870602, 557
2015-10-27 20:20:05.870692, 562
2015-10-27 20:20:05.870756, 573
2015-10-27 20:20:05.886654, 581
2015-10-27 20:20:05.886796, 591
2015-10-27 20:20:05.886864, 602
2015-10-27 20:20:05.902706, 609
2015-10-27 20:20:05.902798, 612
2015-10-27 20:20:05.902862, 610
2015-10-27 20:20:05.918695, 610
2015-10-27 20:20:05.918789, 615
2015-10-27 20:20:05.918854, 615
2015-10-27 20:20:05.934454, 606
2015-10-27 20:20:05.934564, 599
2015-10-27 20:20:05.934631, 591
2015-10-27 20:20:05.950502, 579
2015-10-27 20:20:05.950596, 565
2015-10-27 20:20:05.950662, 553
2015-10-27 20:20:05.966399, 540
2015-10-27 20:20:05.966507, 525
2015-10-27 20:20:05.966573, 512
2015-10-27 20:20:05.982555, 501
2015-10-27 20:20:05.982664, 489
2015-10-27 20:20:05.982730, 482
2015-10-27 20:20:05.998757, 475
2015-10-27 20:20:05.998924, 471
2015-10-27 20:20:05.999054, 465
2015-10-27 20:20:05.999135, 464
2015-10-27 20:20:06.014665, 466
2015-10-27 20:20:06.014804, 464
2015-10-27 20:20:06.014877, 459
2015-10-27 20:20:06.030620, 459
2015-10-27 20:20:06.030748, 467
2015-10-27 20:20:06.030817, 472
2015-10-27 20:20:06.046739, 470
2015-10-27 20:20:06.046886, 466
2015-10-27 20:20:06.046957, 467
2015-10-27 20:20:06.062622, 471
2015-10-27 20:20:06.062712, 467
2015-10-27 20:20:06.062776, 465
2015-10-27 20:20:06.078717, 466
2015-10-27 20:20:06.078860, 467
2015-10-27 20:20:06.079028, 468
2015-10-27 20:20:06.094606, 469
2015-10-27 20:20:06.094695, 471
2015-10-27 20:20:06.094760, 470
2015-10-27 20:20:06.110502, 467
2015-10-27 20:20:06.110654, 472
2015-10-27 20:20:06.110783, 476
2015-10-27 20:20:06.126717, 473
2015-10-27 20:20:06.126807, 467
2015-10-27 20:20:06.126872, 466
2015-10-27 20:20:06.142406, 469
2015-10-27 20:20:06.142496, 472
2015-10-27 20:20:06.142561, 471
2015-10-27 20:20:06.158578, 472
2015-10-27 20:20:06.158677, 468
2015-10-27 20:20:06.158743, 463
2015-10-27 20:20:06.174528, 461
2015-10-27 20:20:06.174625, 458
2015-10-27 20:20:06.174691, 459
2015-10-27 20:20:06.190359, 459
2015-10-27 20:20:06.190573, 456
2015-10-27 20:20:06.190711, 462
2015-10-27 20:20:06.206285, 464
2015-10-27 20:20:06.206431, 458
2015-10-27 20:20:06.206514, 458
2015-10-27 20:20:06.222267, 461
2015-10-27 20:20:06.222364, 462
2015-10-27 20:20:06.222424, 460
2015-10-27 20:20:06.238307, 460
2015-10-27 20:20:06.238376, 458
2015-10-27 20:20:06.238414, 458
2015-10-27 20:20:06.238450, 461
2015-10-27 20:20:06.254545, 464
2015-10-27 20:20:06.254635, 465
2015-10-27 20:20:06.254699, 461
2015-10-27 20:20:06.270364, 460
2015-10-27 20:20:06.270454, 460
2015-10-27 20:20:06.270576, 457
2015-10-27 20:20:06.286575, 456
2015-10-27 20:20:06.286666, 457
2015-10-27 20:20:06.286730, 459
2015-10-27 20:20:06.302416, 459
2015-10-27 20:20:06.302505, 460
2015-10-27 20:20:06.302571, 461
2015-10-27 20:20:06.318439, 464
2015-10-27 20:20:06.318632, 467
2015-10-27 20:20:06.318702, 463
2015-10-27 20:20:06.334295, 458
2015-10-27 20:20:06.334385, 466
2015-10-27 20:20:06.334451, 472
2015-10-27 20:20:06.350289, 473
2015-10-27 20:20:06.350378, 471
2015-10-27 20:20:06.350443, 474
2015-10-27 20:20:06.366394, 475
2015-10-27 20:20:06.366543, 469
2015-10-27 20:20:06.366626, 470
2015-10-27 20:20:06.382601, 471
2015-10-27 20:20:06.382696, 468
2015-10-27 20:20:06.382762, 465
2015-10-27 20:20:06.398369, 465
2015-10-27 20:20:06.398464, 464
2015-10-27 20:20:06.398529, 463
2015-10-27 20:20:06.414561, 464
2015-10-27 20:20:06.414714, 462
2015-10-27 20:20:06.414841, 461
2015-10-27 20:20:06.430450, 459
2015-10-27 20:20:06.430544, 455
2015-10-27 20:20:06.430619, 454
2015-10-27 20:20:06.446497, 458
2015-10-27 20:20:06.446664, 460
2015-10-27 20:20:06.446794, 459
2015-10-27 20:20:06.462545, 461
2015-10-27 20:20:06.462709, 458
2015-10-27 20:20:06.462781, 454
2015-10-27 20:20:06.478413, 458
2015-10-27 20:20:06.478525, 471
2015-10-27 20:20:06.478592, 474
2015-10-27 20:20:06.478748, 471
2015-10-27 20:20:06.494598, 468
2015-10-27 20:20:06.494742, 468
2015-10-27 20:20:06.494870, 469
2015-10-27 20:20:06.510535, 470
2015-10-27 20:20:06.510625, 472
2015-10-27 20:20:06.510690, 478
2015-10-27 20:20:06.526297, 484
2015-10-27 20:20:06.526388, 488
2015-10-27 20:20:06.526453, 491
2015-10-27 20:20:06.542363, 489
2015-10-27 20:20:06.542504, 490
2015-10-27 20:20:06.542598, 490
2015-10-27 20:20:06.558296, 488
2015-10-27 20:20:06.558384, 488
2015-10-27 20:20:06.558449, 489
2015-10-27 20:20:06.574220, 490
2015-10-27 20:20:06.574321, 493
2015-10-27 20:20:06.574385, 490
2015-10-27 20:20:06.590308, 483
2015-10-27 20:20:06.590399, 481
2015-10-27 20:20:06.590464, 480
2015-10-27 20:20:06.606506, 483
2015-10-27 20:20:06.606616, 476
2015-10-27 20:20:06.606684, 470
2015-10-27 20:20:06.622221, 471
2015-10-27 20:20:06.622311, 474
2015-10-27 20:20:06.622376, 473
2015-10-27 20:20:06.638225, 476
2015-10-27 20:20:06.638315, 482
2015-10-27 20:20:06.638379, 480
2015-10-27 20:20:06.654357, 473
2015-10-27 20:20:06.654450, 471
2015-10-27 20:20:06.654515, 477
2015-10-27 20:20:06.670176, 474
2015-10-27 20:20:06.670269, 471
2015-10-27 20:20:06.670334, 474
2015-10-27 20:20:06.686393, 474
2015-10-27 20:20:06.686524, 473
2015-10-27 20:20:06.686590, 472
2015-10-27 20:20:06.702322, 465
2015-10-27 20:20:06.702430, 450
2015-10-27 20:20:06.702496, 454
2015-10-27 20:20:06.718420, 480
2015-10-27 20:20:06.718629, 542
2015-10-27 20:20:06.718712, 646
2015-10-27 20:20:06.718781, 743
2015-10-27 20:20:06.734296, 824
2015-10-27 20:20:06.734451, 869
2015-10-27 20:20:06.734580, 804
2015-10-27 20:20:06.750122, 640
2015-10-27 20:20:06.750184, 456
2015-10-27 20:20:06.750222, 388
2015-10-27 20:20:06.766097, 419
2015-10-27 20:20:06.766149, 459
2015-10-27 20:20:06.766186, 481
2015-10-27 20:20:06.782225, 487
2015-10-27 20:20:06.782383, 483
2015-10-27 20:20:06.782505, 487
2015-10-27 20:20:06.798080, 494
2015-10-27 20:20:06.798133, 499
2015-10-27 20:20:06.798171, 498
2015-10-27 20:20:06.814093, 494
2015-10-27 20:20:06.814145, 497
2015-10-27 20:20:06.814182, 507
2015-10-27 20:20:06.830290, 509
2015-10-27 20:20:06.830380, 512
2015-10-27 20:20:06.830446, 516
2015-10-27 20:20:06.846491, 517
2015-10-27 20:20:06.846583, 519
2015-10-27 20:20:06.846648, 521
2015-10-27 20:20:06.862236, 525
2015-10-27 20:20:06.862343, 525
2015-10-27 20:20:06.862424, 524
2015-10-27 20:20:06.878136, 531
2015-10-27 20:20:06.878201, 539
2015-10-27 20:20:06.878246, 537
2015-10-27 20:20:06.894298, 541
2015-10-27 20:20:06.894391, 549
2015-10-27 20:20:06.894456, 550
2015-10-27 20:20:06.910294, 546
2015-10-27 20:20:06.910389, 550
2015-10-27 20:20:06.910455, 559
2015-10-27 20:20:06.926347, 565
2015-10-27 20:20:06.926440, 570
2015-10-27 20:20:06.926507, 574
2015-10-27 20:20:06.942203, 581
2015-10-27 20:20:06.942312, 588
2015-10-27 20:20:06.942382, 591
2015-10-27 20:20:06.958124, 597
2015-10-27 20:20:06.958233, 610
2015-10-27 20:20:06.958300, 619
2015-10-27 20:20:06.974039, 624
2015-10-27 20:20:06.974106, 625
2015-10-27 20:20:06.974144, 635
2015-10-27 20:20:06.974180, 639
2015-10-27 20:20:06.990090, 640
2015-10-27 20:20:06.990182, 636
2015-10-27 20:20:06.990254, 629
2015-10-27 20:20:07.006251, 621
2015-10-27 20:20:07.006340, 610
2015-10-27 20:20:07.006404, 597
2015-10-27 20:20:07.022296, 583
2015-10-27 20:20:07.022385, 570
2015-10-27 20:20:07.022450, 556
2015-10-27 20:20:07.038315, 543
2015-10-27 20:20:07.038406, 530
2015-10-27 20:20:07.038470, 513
2015-10-27 20:20:07.054163, 500
2015-10-27 20:20:07.054305, 495
2015-10-27 20:20:07.054420, 487
2015-10-27 20:20:07.070071, 475
2015-10-27 20:20:07.070136, 469
2015-10-27 20:20:07.070181, 466
2015-10-27 20:20:07.086216, 460
2015-10-27 20:20:07.086326, 453
2015-10-27 20:20:07.086392, 456
2015-10-27 20:20:07.102293, 460
2015-10-27 20:20:07.102384, 462
2015-10-27 20:20:07.102449, 461
2015-10-27 20:20:07.118108, 463
2015-10-27 20:20:07.118199, 460
2015-10-27 20:20:07.118265, 455
2015-10-27 20:20:07.134082, 455
2015-10-27 20:20:07.134176, 461
2015-10-27 20:20:07.134242, 465
2015-10-27 20:20:07.150360, 468
2015-10-27 20:20:07.150452, 465
2015-10-27 20:20:07.150518, 460
2015-10-27 20:20:07.166239, 464
2015-10-27 20:20:07.166332, 469
2015-10-27 20:20:07.166398, 471
2015-10-27 20:20:07.182550, 471
2015-10-27 20:20:07.182727, 474
2015-10-27 20:20:07.182857, 476
2015-10-27 20:20:07.198177, 475
2015-10-27 20:20:07.198326, 477
2015-10-27 20:20:07.198392, 480
2015-10-27 20:20:07.214264, 481
2015-10-27 20:20:07.214476, 477
2015-10-27 20:20:07.214597, 476
2015-10-27 20:20:07.214663, 475
2015-10-27 20:20:07.230339, 473
2015-10-27 20:20:07.230429, 474
2015-10-27 20:20:07.230493, 475
2015-10-27 20:20:07.246204, 473
2015-10-27 20:20:07.246293, 471
2015-10-27 20:20:07.246359, 473
2015-10-27 20:20:07.262338, 476
2015-10-27 20:20:07.262426, 474
2015-10-27 20:20:07.262491, 470
2015-10-27 20:20:07.278362, 471
2015-10-27 20:20:07.278451, 476
2015-10-27 20:20:07.278517, 482
2015-10-27 20:20:07.294210, 484
2015-10-27 20:20:07.294300, 489
2015-10-27 20:20:07.294365, 489
2015-10-27 20:20:07.310306, 486
2015-10-27 20:20:07.310420, 486
2015-10-27 20:20:07.310542, 488
2015-10-27 20:20:07.326223, 486
2015-10-27 20:20:07.326360, 485
2015-10-27 20:20:07.326429, 488
2015-10-27 20:20:07.342046, 490
2015-10-27 20:20:07.342138, 489
2015-10-27 20:20:07.342202, 493
2015-10-27 20:20:07.358113, 504
2015-10-27 20:20:07.358204, 508
2015-10-27 20:20:07.358269, 502
2015-10-27 20:20:07.374136, 496
2015-10-27 20:20:07.374228, 497
2015-10-27 20:20:07.374294, 500
2015-10-27 20:20:07.390151, 498
2015-10-27 20:20:07.390245, 494
2015-10-27 20:20:07.390309, 494
2015-10-27 20:20:07.405997, 495
2015-10-27 20:20:07.406060, 491
2015-10-27 20:20:07.406105, 485
2015-10-27 20:20:07.422110, 483
2015-10-27 20:20:07.422218, 483
2015-10-27 20:20:07.422285, 480
2015-10-27 20:20:07.438183, 478
2015-10-27 20:20:07.438291, 482
2015-10-27 20:20:07.438356, 484
2015-10-27 20:20:07.454183, 483
2015-10-27 20:20:07.454292, 484
2015-10-27 20:20:07.454359, 486
2015-10-27 20:20:07.454421, 485
2015-10-27 20:20:07.470141, 481
2015-10-27 20:20:07.470295, 479
2015-10-27 20:20:07.470366, 480
2015-10-27 20:20:07.486182, 478
2015-10-27 20:20:07.486272, 478
2015-10-27 20:20:07.486336, 479
2015-10-27 20:20:07.502123, 477
2015-10-27 20:20:07.502212, 472
2015-10-27 20:20:07.502277, 469
2015-10-27 20:20:07.518055, 475
2015-10-27 20:20:07.518144, 476
2015-10-27 20:20:07.518208, 473
2015-10-27 20:20:07.533965, 474
2015-10-27 20:20:07.534109, 482
2015-10-27 20:20:07.534177, 487
2015-10-27 20:20:07.550026, 484
2015-10-27 20:20:07.550173, 483
2015-10-27 20:20:07.550296, 484
2015-10-27 20:20:07.566036, 482
2015-10-27 20:20:07.566129, 482
2015-10-27 20:20:07.566195, 484
2015-10-27 20:20:07.582052, 486
2015-10-27 20:20:07.582167, 485
2015-10-27 20:20:07.582251, 481
2015-10-27 20:20:07.598121, 482
2015-10-27 20:20:07.598210, 488
2015-10-27 20:20:07.598275, 491
2015-10-27 20:20:07.614141, 489
2015-10-27 20:20:07.614233, 491
2015-10-27 20:20:07.614298, 497
2015-10-27 20:20:07.630117, 496
2015-10-27 20:20:07.630209, 493
2015-10-27 20:20:07.630274, 503
2015-10-27 20:20:07.646119, 509
2015-10-27 20:20:07.646215, 505
2015-10-27 20:20:07.646280, 498
2015-10-27 20:20:07.662100, 495
2015-10-27 20:20:07.662264, 495
2015-10-27 20:20:07.662330, 491
2015-10-27 20:20:07.677932, 490
2015-10-27 20:20:07.678041, 490
2015-10-27 20:20:07.678107, 485
2015-10-27 20:20:07.694105, 477
2015-10-27 20:20:07.694213, 477
2015-10-27 20:20:07.694280, 483
2015-10-27 20:20:07.694343, 484
2015-10-27 20:20:07.709961, 478
2015-10-27 20:20:07.710051, 483
2015-10-27 20:20:07.710116, 489
2015-10-27 20:20:07.725985, 491
2015-10-27 20:20:07.726078, 490
2015-10-27 20:20:07.726142, 488
2015-10-27 20:20:07.742183, 490
2015-10-27 20:20:07.742272, 492
2015-10-27 20:20:07.742337, 492
2015-10-27 20:20:07.757898, 494
2015-10-27 20:20:07.757988, 501
2015-10-27 20:20:07.758053, 501
2015-10-27 20:20:07.773933, 482
2015-10-27 20:20:07.774023, 474
2015-10-27 20:20:07.774089, 497
2015-10-27 20:20:07.790152, 539
2015-10-27 20:20:07.790247, 619
2015-10-27 20:20:07.790314, 715
2015-10-27 20:20:07.806030, 800
2015-10-27 20:20:07.806121, 868
2015-10-27 20:20:07.806185, 863
2015-10-27 20:20:07.821939, 746
2015-10-27 20:20:07.822030, 549
2015-10-27 20:20:07.822094, 404
2015-10-27 20:20:07.837927, 397
2015-10-27 20:20:07.838017, 453
2015-10-27 20:20:07.838082, 491
2015-10-27 20:20:07.854076, 504
2015-10-27 20:20:07.854227, 507
2015-10-27 20:20:07.854330, 504
2015-10-27 20:20:07.870140, 504
2015-10-27 20:20:07.870233, 506
2015-10-27 20:20:07.870302, 508
2015-10-27 20:20:07.885936, 513
2015-10-27 20:20:07.886077, 515
2015-10-27 20:20:07.886183, 519
2015-10-27 20:20:07.901827, 523
2015-10-27 20:20:07.901936, 525
2015-10-27 20:20:07.902003, 521
2015-10-27 20:20:07.917899, 518
2015-10-27 20:20:07.918006, 521
2015-10-27 20:20:07.918073, 525
2015-10-27 20:20:07.934008, 528
2015-10-27 20:20:07.934116, 528
2015-10-27 20:20:07.934183, 530
2015-10-27 20:20:07.934245, 529
2015-10-27 20:20:07.949932, 527
2015-10-27 20:20:07.950019, 525
2015-10-27 20:20:07.950083, 526
2015-10-27 20:20:07.965922, 527
2015-10-27 20:20:07.966011, 524
2015-10-27 20:20:07.966076, 527
2015-10-27 20:20:07.982087, 536
2015-10-27 20:20:07.982176, 543
2015-10-27 20:20:07.982239, 548
2015-10-27 20:20:07.997936, 555
2015-10-27 20:20:07.998024, 559
2015-10-27 20:20:07.998087, 561
2015-10-27 20:20:08.014142, 565
2015-10-27 20:20:08.014323, 574
2015-10-27 20:20:08.014403, 580
2015-10-27 20:20:08.030118, 585
2015-10-27 20:20:08.030232, 587
2015-10-27 20:20:08.030297, 599
2015-10-27 20:20:08.046057, 615
2015-10-27 20:20:08.046216, 624
2015-10-27 20:20:08.046332, 629
2015-10-27 20:20:08.061883, 631
2015-10-27 20:20:08.061972, 629
2015-10-27 20:20:08.062036, 625
2015-10-27 20:20:08.078203, 621
2015-10-27 20:20:08.078294, 617
2015-10-27 20:20:08.078374, 611
2015-10-27 20:20:08.094234, 600
2015-10-27 20:20:08.094327, 589
2015-10-27 20:20:08.094393, 580
2015-10-27 20:20:08.110185, 562
2015-10-27 20:20:08.110282, 546
2015-10-27 20:20:08.110347, 529
2015-10-27 20:20:08.126034, 515
2015-10-27 20:20:08.126131, 504
2015-10-27 20:20:08.126196, 502
2015-10-27 20:20:08.141972, 497
2015-10-27 20:20:08.142065, 484
2015-10-27 20:20:08.142131, 469
2015-10-27 20:20:08.157987, 462
2015-10-27 20:20:08.158094, 463
2015-10-27 20:20:08.158218, 460
2015-10-27 20:20:08.173981, 454
2015-10-27 20:20:08.174133, 450
2015-10-27 20:20:08.174235, 452
2015-10-27 20:20:08.189875, 451
2015-10-27 20:20:08.189983, 449
2015-10-27 20:20:08.190054, 452
2015-10-27 20:20:08.190117, 454
2015-10-27 20:20:08.205861, 451
2015-10-27 20:20:08.205951, 452
2015-10-27 20:20:08.206015, 458
2015-10-27 20:20:08.221847, 453
2015-10-27 20:20:08.221913, 450
2015-10-27 20:20:08.221960, 453
2015-10-27 20:20:08.237764, 457
2015-10-27 20:20:08.237818, 459
2015-10-27 20:20:08.237855, 462
2015-10-27 20:20:08.253777, 465
2015-10-27 20:20:08.253843, 469
2015-10-27 20:20:08.253889, 470
2015-10-27 20:20:08.269773, 472
2015-10-27 20:20:08.269837, 473
2015-10-27 20:20:08.269882, 475
2015-10-27 20:20:08.285826, 477
2015-10-27 20:20:08.285915, 475
2015-10-27 20:20:08.285980, 476
2015-10-27 20:20:08.301756, 482
2015-10-27 20:20:08.301815, 485
2015-10-27 20:20:08.301852, 482
2015-10-27 20:20:08.317794, 478
2015-10-27 20:20:08.317908, 479
2015-10-27 20:20:08.317994, 479
2015-10-27 20:20:08.333753, 479
2015-10-27 20:20:08.333846, 482
2015-10-27 20:20:08.333914, 485
2015-10-27 20:20:08.349786, 481
2015-10-27 20:20:08.349863, 479
2015-10-27 20:20:08.349916, 484
2015-10-27 20:20:08.365717, 489
2015-10-27 20:20:08.365773, 485
2015-10-27 20:20:08.365810, 482
2015-10-27 20:20:08.381799, 484
2015-10-27 20:20:08.381892, 485
2015-10-27 20:20:08.381958, 479
2015-10-27 20:20:08.397764, 472
2015-10-27 20:20:08.397870, 474
2015-10-27 20:20:08.397936, 473
2015-10-27 20:20:08.413740, 472
2015-10-27 20:20:08.413849, 472
2015-10-27 20:20:08.413914, 476
2015-10-27 20:20:08.429697, 476
2015-10-27 20:20:08.429761, 471
2015-10-27 20:20:08.429799, 472
2015-10-27 20:20:08.429834, 476
2015-10-27 20:20:08.445767, 478
2015-10-27 20:20:08.445861, 475
2015-10-27 20:20:08.446098, 471
2015-10-27 20:20:08.461683, 469
2015-10-27 20:20:08.461737, 468
2015-10-27 20:20:08.461774, 469
2015-10-27 20:20:08.478177, 478
2015-10-27 20:20:08.478330, 483
2015-10-27 20:20:08.478456, 479
2015-10-27 20:20:08.493675, 478
2015-10-27 20:20:08.493729, 477
2015-10-27 20:20:08.493766, 479
2015-10-27 20:20:08.509802, 482
2015-10-27 20:20:08.509905, 485
2015-10-27 20:20:08.509971, 484
2015-10-27 20:20:08.525728, 483
2015-10-27 20:20:08.525820, 482
2015-10-27 20:20:08.525895, 484
2015-10-27 20:20:08.542052, 488
2015-10-27 20:20:08.542201, 489
2015-10-27 20:20:08.542324, 491
2015-10-27 20:20:08.557659, 496
2015-10-27 20:20:08.557724, 496
2015-10-27 20:20:08.557770, 491
2015-10-27 20:20:08.573765, 488
2015-10-27 20:20:08.573856, 492
2015-10-27 20:20:08.573921, 497
2015-10-27 20:20:08.589837, 492
2015-10-27 20:20:08.589941, 487
2015-10-27 20:20:08.590007, 487
2015-10-27 20:20:08.605793, 493
2015-10-27 20:20:08.605887, 493
2015-10-27 20:20:08.605953, 492
2015-10-27 20:20:08.621644, 493
2015-10-27 20:20:08.621712, 491
2015-10-27 20:20:08.621758, 494
2015-10-27 20:20:08.637799, 494
2015-10-27 20:20:08.637907, 494
2015-10-27 20:20:08.637972, 492
2015-10-27 20:20:08.653657, 487
2015-10-27 20:20:08.653765, 484
2015-10-27 20:20:08.653832, 486
2015-10-27 20:20:08.669899, 491
2015-10-27 20:20:08.670028, 494
2015-10-27 20:20:08.670096, 497
2015-10-27 20:20:08.670159, 499
2015-10-27 20:20:08.685924, 506
2015-10-27 20:20:08.686014, 507
2015-10-27 20:20:08.686091, 507
2015-10-27 20:20:08.701689, 505
2015-10-27 20:20:08.701779, 503
2015-10-27 20:20:08.701843, 503
2015-10-27 20:20:08.717920, 503
2015-10-27 20:20:08.718008, 503
2015-10-27 20:20:08.718072, 502
2015-10-27 20:20:08.733851, 500
2015-10-27 20:20:08.733941, 500
2015-10-27 20:20:08.734006, 499
2015-10-27 20:20:08.749948, 492
2015-10-27 20:20:08.750043, 482
2015-10-27 20:20:08.750107, 486
2015-10-27 20:20:08.765727, 492
2015-10-27 20:20:08.765875, 490
2015-10-27 20:20:08.766063, 487
2015-10-27 20:20:08.781626, 484
2015-10-27 20:20:08.781711, 483
2015-10-27 20:20:08.781774, 484
2015-10-27 20:20:08.797695, 491
2015-10-27 20:20:08.797775, 497
2015-10-27 20:20:08.797834, 496
2015-10-27 20:20:08.813572, 497
2015-10-27 20:20:08.813626, 496
2015-10-27 20:20:08.813662, 495
2015-10-27 20:20:08.829586, 496
2015-10-27 20:20:08.829680, 498
2015-10-27 20:20:08.829823, 489
2015-10-27 20:20:08.845590, 475
2015-10-27 20:20:08.845645, 484
2015-10-27 20:20:08.845682, 516
2015-10-27 20:20:08.861690, 587
2015-10-27 20:20:08.861815, 689
2015-10-27 20:20:08.861878, 775
2015-10-27 20:20:08.877596, 848
2015-10-27 20:20:08.877726, 873
2015-10-27 20:20:08.877831, 785
2015-10-27 20:20:08.893525, 597
2015-10-27 20:20:08.893676, 422
