timestamp,raw_value,wavelet_value
datetime,int,float
T,,
2015-10-27 20:19:50.978577,462,520.03187109136161
2015-10-27 20:19:50.978651,460,520.03187109136161
2015-10-27 20:19:50.978702,462,520.03187109136161
2015-10-27 20:19:50.994725,468,520.03187109136161
2015-10-27 20:19:50.994815,476,520.03187109136161
2015-10-27 20:19:50.994880,480,520.03187109136172
2015-10-27 20:19:51.010632,481,520.03187109136172
2015-10-27 20:19:51.010723,484,520.03187109136172
2015-10-27 20:19:51.010788,481,520.03187109136172
2015-10-27 20:19:51.026684,475,520.03187109136172
2015-10-27 20:19:51.026945,475,520.03187109136172
2015-10-27 20:19:51.027147,480,520.03187109136172
2015-10-27 20:19:51.042747,487,520.03187109136172
2015-10-27 20:19:51.042841,493,520.03187109136172
2015-10-27 20:19:51.042906,496,520.03187109136172
2015-10-27 20:19:51.058657,495,520.03187109136172
2015-10-27 20:19:51.058727,490,520.03187109136172
2015-10-27 20:19:51.058774,488,520.03187109136172
2015-10-27 20:19:51.074741,497,520.03187109136172
2015-10-27 20:19:51.074834,500,520.03187109136172
2015-10-27 20:19:51.074900,494,520.03187109136172
2015-10-27 20:19:51.090568,484,520.03187109136172
2015-10-27 20:19:51.090680,480,520.03187109136172
2015-10-27 20:19:51.090748,480,520.03187109136172
2015-10-27 20:19:51.106734,478,520.03187109136172
2015-10-27 20:19:51.106892,477,520.03187109136172
2015-10-27 20:19:51.107053,475,520.03187109136172
2015-10-27 20:19:51.122741,479,520.03187109136172
2015-10-27 20:19:51.122888,477,520.03187109136161
2015-10-27 20:19:51.122955,468,520.03187109136161
2015-10-27 20:19:51.123018,473,520.0318710913615
2015-10-27 20:19:51.138589,478,520.0318710913615
2015-10-27 20:19:51.138778,475,520.0318710913615
2015-10-27 20:19:51.138860,469,520.03187109136138
2015-10-27 20:19:51.154753,474,520.03187109136138
2015-10-27 20:19:51.154841,481,520.03187109136138
2015-10-27 20:19:51.154905,486,520.03187109136127
2015-10-27 20:19:51.170707,488,520.03187109136127
2015-10-27 20:19:51.170796,490,520.03187109136127
2015-10-27 20:19:51.170862,487,520.03187109136115
2015-10-27 20:19:51.186720,474,520.03187109136115
2015-10-27 20:19:51.186859,467,520.03187109136115
2015-10-27 20:19:51.186935,489,520.03187109136115
2015-10-27 20:19:51.202624,540,520.03187109136104
2015-10-27 20:19:51.202726,626,520.03187109136104
2015-10-27 20:19:51.202793,713,520.03187109136104
2015-10-27 20:19:51.218545,784,520.03187109136104
2015-10-27 20:19:51.218635,841,520.03187109136104
2015-10-27 20:19:51.218700,815,520.03187109136093
2015-10-27 20:19:51.234549,682,520.03187109136093
2015-10-27 20:19:51.234640,486,520.03187109136093
2015-10-27 20:19:51.234707,379,519.59121513751188
2015-10-27 20:19:51.250743,401,518.84860054817284
2015-10-27 20:19:51.250836,456,518.13349020288331
2015-10-27 20:19:51.250901,486,517.44438387014975
2015-10-27 20:19:51.266720,497,516.77988847787094
2015-10-27 20:19:51.266811,497,516.13870871339157
2015-10-27 20:19:51.266876,497,515.5196385959631
2015-10-27 20:19:51.282537,502,514.92155390624407
2015-10-27 20:19:51.282630,506,514.34340537284902
2015-10-27 20:19:51.282695,505,513.78421252907344
2015-10-27 20:19:51.298523,504,513.24305816412937
2015-10-27 20:19:51.298615,499,512.71908330283441
2015-10-27 20:19:51.298681,504,512.20083073736396
2015-10-27 20:19:51.314507,509,511.7186811436186
2015-10-27 20:19:51.314601,511,511.25114214362316
2015-10-27 20:19:51.314666,516,510.79755953168717
2015-10-27 20:19:51.330494,516,510.35731758480813
2015-10-27 20:19:51.330602,512,509.92983627407057
2015-10-27 20:19:51.330667,511,509.51456871506844
2015-10-27 20:19:51.346699,519,509.11099883378449
2015-10-27 20:19:51.346884,527,508.71863922698083
2015-10-27 20:19:51.347011,528,508.33702919844563
2015-10-27 20:19:51.362469,528,507.96573295446558
2015-10-27 20:19:51.362577,528,507.60433794365815
2015-10-27 20:19:51.362643,530,507.2524533278721
2015-10-27 20:19:51.362706,530,506.90970857223635
2015-10-27 20:19:51.378652,530,506.57575214366807
2015-10-27 20:19:51.378740,534,506.25025030822826
2015-10-27 20:19:51.378804,542,505.93288601867425
2015-10-27 20:19:51.394650,543,505.62335788441806
2015-10-27 20:19:51.394738,548,505.32137921685091
2015-10-27 20:19:51.394802,555,505.02667714368306
2015-10-27 20:19:51.410688,559,504.7389917865429
2015-10-27 20:19:51.410777,564,504.4580754966297
2015-10-27 20:19:51.410842,569,504.18369214369113
2015-10-27 20:19:51.426822,577,503.91561645403851
2015-10-27 20:19:51.426938,580,503.65363339369628
2015-10-27 20:19:51.427003,589,503.39753759313692
2015-10-27 20:19:51.442773,603,503.14713281036779
2015-10-27 20:19:51.442863,612,502.90223142941772
2015-10-27 20:19:51.442928,612,502.6626539915319
2015-10-27 20:19:51.458535,619,502.42822875661125
2015-10-27 20:19:51.458699,626,502.19879129264643
2015-10-27 20:19:51.458774,634,501.97418409108082
2015-10-27 20:19:51.474651,635,501.75425620621456
2015-10-27 20:19:51.474744,632,501.53886291691242
2015-10-27 20:19:51.474810,627,501.32786540902475
2015-10-27 20:19:51.490463,619,501.12113047705395
2015-10-27 20:19:51.490554,613,500.91853024372256
2015-10-27 20:19:51.490618,609,500.52682260424808
2015-10-27 20:19:51.506602,601,500.13511496477361
2015-10-27 20:19:51.506730,587,499.74340732529913
2015-10-27 20:19:51.506844,571,499.35169968582466
2015-10-27 20:19:51.522585,559,498.95999204635018
2015-10-27 20:19:51.522706,549,498.5682844068757
2015-10-27 20:19:51.522772,538,498.17657676740123
2015-10-27 20:19:51.538507,526,497.78486912792675
2015-10-27 20:19:51.538600,516,497.39316148845228
2015-10-27 20:19:51.538665,501,497.0014538489778
2015-10-27 20:19:51.554415,488,496.60974620950333
2015-10-27 20:19:51.554508,486,496.21803857002897
2015-10-27 20:19:51.554572,489,495.82633093055449
2015-10-27 20:19:51.570553,484,495.43462329108002
2015-10-27 20:19:51.570957,475,495.04291565160554
2015-10-27 20:19:51.571151,470,494.65120801213106
2015-10-27 20:19:51.586602,473,494.2595003726567
2015-10-27 20:19:51.586805,477,493.86779273318234
2015-10-27 20:19:51.586887,481,493.47608509370787
2015-10-27 20:19:51.602547,481,493.08437745423339
2015-10-27 20:19:51.602739,478,492.69266981475891
2015-10-27 20:19:51.602815,469,492.30096217528455
2015-10-27 20:19:51.602879,464,491.90925453581008
2015-10-27 20:19:51.618544,475,491.5175468963356
2015-10-27 20:19:51.618643,479,491.12583925686113
2015-10-27 20:19:51.618722,478,490.73413161738665
2015-10-27 20:19:51.634514,481,490.34242397791229
2015-10-27 20:19:51.634704,488,489.95071633843781
2015-10-27 20:19:51.634782,492,489.55642050851236
2015-10-27 20:19:51.650596,491,489.16979633808307
2015-10-27 20:19:51.650691,491,488.78317216765367
2015-10-27 20:19:51.650756,493,488.39654799722439
2015-10-27 20:19:51.666616,494,488.0099238267951
2015-10-27 20:19:51.666776,497,487.62329965636582
2015-10-27 20:19:51.666900,501,487.23667548593653
2015-10-27 20:19:51.682436,501,486.85005131550713
2015-10-27 20:19:51.682720,499,486.46342714507784
2015-10-27 20:19:51.682968,500,486.06515611761893
2015-10-27 20:19:51.698821,497,485.68800538173866
2015-10-27 20:19:51.698912,493,485.31180198931349
2015-10-27 20:19:51.698986,492,484.9355985968881
2015-10-27 20:19:51.714689,494,484.55939520446282
2015-10-27 20:19:51.714909,493,484.18319181203753
2015-10-27 20:19:51.714990,497,483.80698841961225
2015-10-27 20:19:51.730356,500,483.43078502718697
2015-10-27 20:19:51.730466,502,483.05458163476169
2015-10-27 20:19:51.730550,502,482.67837824233641
2015-10-27 20:19:51.746361,500,482.30217484991101
2015-10-27 20:19:51.746481,497,481.92597145748584
2015-10-27 20:19:51.746565,497,481.54976806506045
2015-10-27 20:19:51.762403,498,481.17356467263517
2015-10-27 20:19:51.762487,495,481.0265023762114
2015-10-27 20:19:51.762526,490,481.04829127567439
2015-10-27 20:19:51.778332,488,481.07008017513738
2015-10-27 20:19:51.778424,487,481.09186907460037
2015-10-27 20:19:51.778497,485,481.11365797406313
2015-10-27 20:19:51.794290,487,481.13544687352612
2015-10-27 20:19:51.794345,492,481.15723577298911
2015-10-27 20:19:51.794382,493,481.17902467245199
2015-10-27 20:19:51.810527,491,481.20081357191498
2015-10-27 20:19:51.810638,488,481.22260247137797
2015-10-27 20:19:51.810703,483,481.24439137084084
2015-10-27 20:19:51.826606,484,481.26618027030383
2015-10-27 20:19:51.826765,486,481.29478639766489
2015-10-27 20:19:51.826870,488,481.31253208339444
2015-10-27 20:19:51.842733,488,481.330277769124
2015-10-27 20:19:51.842862,488,481.34802345485343
2015-10-27 20:19:51.842929,487,481.3657691405831
2015-10-27 20:19:51.858331,486,481.38351482631253
2015-10-27 20:19:51.858405,485,481.4012605120422
2015-10-27 20:19:51.858450,487,481.41900619777164
2015-10-27 20:19:51.858493,489,481.43675188350119
2015-10-27 20:19:51.874445,493,481.45449756923063
2015-10-27 20:19:51.874534,497,481.47224325496029
2015-10-27 20:19:51.874611,499,481.48998894068973
2015-10-27 20:19:51.890700,499,481.50773462641939
2015-10-27 20:19:51.890789,501,481.52548031214883
2015-10-27 20:19:51.890854,499,481.54322599787838
2015-10-27 20:19:51.906599,495,481.56097168360782
2015-10-27 20:19:51.906688,501,481.57871736933737
2015-10-27 20:19:51.906752,503,481.59128667416496
2015-10-27 20:19:51.922598,506,481.6128217337141
2015-10-27 20:19:51.922686,504,481.63435679326335
2015-10-27 20:19:51.922751,503,481.65589185281237
2015-10-27 20:19:51.938746,505,481.67613281713614
2015-10-27 20:19:51.938855,506,481.69214474401258
2015-10-27 20:19:51.938922,508,481.71936386429127
2015-10-27 20:19:51.954434,512,481.74399479411886
2015-10-27 20:19:51.954524,513,481.76862572394646
2015-10-27 20:19:51.954571,509,481.79325665377405
2015-10-27 20:19:51.970323,507,481.81788758360165
2015-10-27 20:19:51.970379,508,481.84251851342913
2015-10-27 20:19:51.970415,516,481.86714944325684
2015-10-27 20:19:51.986352,518,481.89178037308432
2015-10-27 20:19:51.986404,518,481.91641130291191
2015-10-27 20:19:51.986440,514,481.94104223273951
2015-10-27 20:19:52.002572,511,481.9656731625671
2015-10-27 20:19:52.002812,510,481.99030409239469
2015-10-27 20:19:52.002932,513,482.01234683177131
2015-10-27 20:19:52.018396,513,482.03438957114781
2015-10-27 20:19:52.018489,507,482.05643231052443
2015-10-27 20:19:52.018555,511,482.07588685945007
2015-10-27 20:19:52.034451,514,482.09275321792472
2015-10-27 20:19:52.034542,513,482.10961957639915
2015-10-27 20:19:52.034606,513,482.1264859348737
2015-10-27 20:19:52.050546,511,482.14335229334836
2015-10-27 20:19:52.050733,509,482.16021865182302
2015-10-27 20:19:52.050809,509,482.17708501029767
2015-10-27 20:19:52.066373,506,482.19395136877222
2015-10-27 20:19:52.066482,498,482.21081772724688
2015-10-27 20:19:52.066572,491,482.22768408572153
2015-10-27 20:19:52.082384,494,482.24455044419619
2015-10-27 20:19:52.082529,496,482.26141680267062
2015-10-27 20:19:52.082706,493,482.27828316114528
2015-10-27 20:19:52.098444,489,482.29514951961994
2015-10-27 20:19:52.098564,490,482.3120158780946
2015-10-27 20:19:52.098697,497,482.32888223656914
2015-10-27 20:19:52.098767,498,482.3457485950438
2015-10-27 20:19:52.114495,496,482.36261495351846
2015-10-27 20:19:52.114722,494,482.37948131199312
2015-10-27 20:19:52.114801,490,482.39634767046755
2015-10-27 20:19:52.130494,491,482.41321402894221
2015-10-27 20:19:52.130584,495,482.43008038741675
2015-10-27 20:19:52.130661,498,482.44694674589141
2015-10-27 20:19:52.146615,493,482.46381310436595
2015-10-27 20:19:52.146705,491,482.48067946284061
2015-10-27 20:19:52.146904,493,482.49754582131527
2015-10-27 20:19:52.162403,493,482.5144121797897
2015-10-27 20:19:52.162492,487,482.53386672871534
2015-10-27 20:19:52.162569,471,482.54564961814492
2015-10-27 20:19:52.178517,474,482.55743250757439
2015-10-27 20:19:52.178934,503,482.56921539700375
2015-10-27 20:19:52.179038,565,482.58099828643321
2015-10-27 20:19:52.194518,665,482.59278117586268
2015-10-27 20:19:52.194609,759,482.60456406529215
2015-10-27 20:19:52.194830,834,482.61634695472173
2015-10-27 20:19:52.210402,876,482.6281298441512
2015-10-27 20:19:52.210646,812,482.65155959061019
2015-10-27 20:19:52.210910,645,482.65386904549064
2015-10-27 20:19:52.226519,459,482.66170163304366
2015-10-27 20:19:52.226636,388,482.4413902593642
2015-10-27 20:19:52.226790,423,482.26378402812679
2015-10-27 20:19:52.242500,472,482.08617779688916
2015-10-27 20:19:52.242590,491,481.90857156565164
2015-10-27 20:19:52.242800,493,481.73096533441412
2015-10-27 20:19:52.258501,492,481.5533591031766
2015-10-27 20:19:52.258594,496,481.37575287193897
2015-10-27 20:19:52.258659,497,481.19814664070145
2015-10-27 20:19:52.274473,498,481.02054040946382
2015-10-27 20:19:52.274567,502,480.8429341782263
2015-10-27 20:19:52.274643,504,480.66532794698878
2015-10-27 20:19:52.290524,503,480.64654200594748
2015-10-27 20:19:52.290618,507,480.88187484250579
2015-10-27 20:19:52.290860,511,481.11746151897773
2015-10-27 20:19:52.306315,510,481.35304819544967
2015-10-27 20:19:52.306492,506,481.58863487192173
2015-10-27 20:19:52.306718,507,481.82422154839367
2015-10-27 20:19:52.322529,510,482.05980822486561
2015-10-27 20:19:52.322641,509,482.29539490133754
2015-10-27 20:19:52.323036,510,482.53098157780948
2015-10-27 20:19:52.338444,514,482.76656825428142
2015-10-27 20:19:52.338552,515,483.00215493075336
2015-10-27 20:19:52.338619,515,483.2377416072253
2015-10-27 20:19:52.338706,513,483.47332828369724
2015-10-27 20:19:52.354553,517,483.70667352148882
2015-10-27 20:19:52.354646,518,483.94001875928029
2015-10-27 20:19:52.354711,520,484.17336399707176
2015-10-27 20:19:52.370640,526,484.40670923486334
2015-10-27 20:19:52.370851,535,484.64005447265492
2015-10-27 20:19:52.371080,540,484.87339971044639
2015-10-27 20:19:52.386491,543,485.10674494823797
2015-10-27 20:19:52.386581,547,485.34009018602944
2015-10-27 20:19:52.386657,553,485.57343542382102
2015-10-27 20:19:52.402614,561,485.80678066161261
2015-10-27 20:19:52.402874,564,486.04012589940419
2015-10-27 20:19:52.403146,568,486.27347113719577
2015-10-27 20:19:52.418563,575,486.50681637498735
2015-10-27 20:19:52.418665,583,486.74016161277893
2015-10-27 20:19:52.418831,584,486.9735068505704
2015-10-27 20:19:52.434468,587,487.20685208836198
2015-10-27 20:19:52.434560,599,487.44537370705552
2015-10-27 20:19:52.434625,607,487.67492957102752
2015-10-27 20:19:52.450641,609,487.9044854349994
2015-10-27 20:19:52.450828,611,488.13404129897128
2015-10-27 20:19:52.451123,610,488.36489125816877
2015-10-27 20:19:52.466424,605,488.59997025481323
2015-10-27 20:19:52.466514,599,488.82384205805567
2015-10-27 20:19:52.466579,594,489.05030205174921
2015-10-27 20:19:52.482546,589,489.27676204544264
2015-10-27 20:19:52.482758,589,489.50322203913606
2015-10-27 20:19:52.482958,578,489.7296820328296
2015-10-27 20:19:52.498395,562,489.95614202652314
2015-10-27 20:19:52.498514,550,490.18260202021656
2015-10-27 20:19:52.498597,537,490.40906201390999
2015-10-27 20:19:52.514207,523,490.63552200760353
2015-10-27 20:19:52.514300,509,490.86198200129695
2015-10-27 20:19:52.514378,497,491.08844199499049
2015-10-27 20:19:52.530398,479,491.31490198868391
2015-10-27 20:19:52.530488,462,491.54653836327941
2015-10-27 20:19:52.530554,462,491.77817473787491
2015-10-27 20:19:52.546429,463,492.0098111124704
2015-10-27 20:19:52.546537,461,492.24532977274237
2015-10-27 20:19:52.546608,456,492.47930049787522
2015-10-27 20:19:52.562424,450,492.70370487660205
2015-10-27 20:19:52.562531,449,492.93363238800146
2015-10-27 20:19:52.562597,446,493.15812967858528
2015-10-27 20:19:52.578326,443,493.37978493880428
2015-10-27 20:19:52.578434,441,493.60083960733891
2015-10-27 20:19:52.578500,440,493.82224102764417
2015-10-27 20:19:52.578563,441,494.04364244794942
2015-10-27 20:19:52.594407,442,494.26504386825468
2015-10-27 20:19:52.594496,440,494.48773938378554
2015-10-27 20:19:52.594562,439,494.70819346063593
2015-10-27 20:19:52.610536,438,494.92770019403133
2015-10-27 20:19:52.610625,441,495.14720692742674
2015-10-27 20:19:52.610692,444,495.36671366082226
2015-10-27 20:19:52.626481,446,495.58622039421766
2015-10-27 20:19:52.626570,448,495.80572712761307
2015-10-27 20:19:52.626634,453,496.02523386100859
2015-10-27 20:19:52.642386,453,496.24474059440399
2015-10-27 20:19:52.642476,450,496.46424732779951
2015-10-27 20:19:52.642542,454,496.68375406119492
2015-10-27 20:19:52.658811,459,496.90326079459044
2015-10-27 20:19:52.658904,459,497.12276752798584
2015-10-27 20:19:52.658968,455,497.34227426138125
2015-10-27 20:19:52.674231,458,497.56178099477677
2015-10-27 20:19:52.674310,463,497.78128772817217
2015-10-27 20:19:52.674406,463,498.00079446156769
2015-10-27 20:19:52.690448,459,498.2203011949631
2015-10-27 20:19:52.690563,459,498.43980792835862
2015-10-27 20:19:52.690628,462,498.65931466175402
2015-10-27 20:19:52.706311,462,498.87882139514954
2015-10-27 20:19:52.706400,467,499.09832812854495
2015-10-27 20:19:52.706464,468,499.31783486194036
2015-10-27 20:19:52.722279,468,499.53734159533587
2015-10-27 20:19:52.722369,472,499.75684832873128
2015-10-27 20:19:52.722433,474,499.9763550621268
2015-10-27 20:19:52.738179,475,500.19586179552221
2015-10-27 20:19:52.738274,476,500.41536852891772
2015-10-27 20:19:52.738339,477,500.62840478618557
2015-10-27 20:19:52.754350,475,501.06958500468591
2015-10-27 20:19:52.754479,471,501.46806008074429
2015-10-27 20:19:52.754546,471,501.86653515680291
2015-10-27 20:19:52.770268,472,502.2650102328613
2015-10-27 20:19:52.770401,480,502.6634853089198
2015-10-27 20:19:52.770470,486,503.06196038497831
2015-10-27 20:19:52.786273,487,503.46043546103681
2015-10-27 20:19:52.786366,485,503.8589105370952
2015-10-27 20:19:52.786432,481,504.2573856131537
2015-10-27 20:19:52.802126,479,504.6558606892122
2015-10-27 20:19:52.802234,476,505.05433576527071
2015-10-27 20:19:52.802300,479,505.29399055113277
2015-10-27 20:19:52.818368,484,505.27952655939544
2015-10-27 20:19:52.818514,486,505.26480872774448
2015-10-27 20:19:52.818580,488,505.25009089609341
2015-10-27 20:19:52.834164,486,505.23537306444234
2015-10-27 20:19:52.834270,480,505.22065523279127
2015-10-27 20:19:52.834337,481,505.2059374011402
2015-10-27 20:19:52.834399,487,505.19121956948914
2015-10-27 20:19:52.850196,489,505.17650173783807
2015-10-27 20:19:52.850285,489,505.161783906187
2015-10-27 20:19:52.850351,490,505.14706607453593
2015-10-27 20:19:52.866395,490,505.13234824288486
2015-10-27 20:19:52.866486,488,505.11763041123379
2015-10-27 20:19:52.866550,490,505.10291257958272
2015-10-27 20:19:52.882304,495,505.08819474793165
2015-10-27 20:19:52.882394,494,505.07347691628058
2015-10-27 20:19:52.882459,491,505.05875908462951
2015-10-27 20:19:52.898124,489,505.04404125297845
2015-10-27 20:19:52.898218,487,505.02932342132738
2015-10-27 20:19:52.898294,485,505.01460558967631
2015-10-27 20:19:52.914245,490,504.99988775802524
2015-10-27 20:19:52.914334,499,504.98516992637417
2015-10-27 20:19:52.914399,501,504.9704520947231
2015-10-27 20:19:52.930078,499,504.95573426307203
2015-10-27 20:19:52.930165,492,504.94101643142096
2015-10-27 20:19:52.930343,492,504.92629859976989
2015-10-27 20:19:52.946327,499,504.91158076811882
2015-10-27 20:19:52.946503,502,504.89686293646776
2015-10-27 20:19:52.946699,512,504.88214510481669
2015-10-27 20:19:52.962396,515,504.86742727316562
2015-10-27 20:19:52.962540,513,504.85270944151443
2015-10-27 20:19:52.962678,509,504.83799160986337
2015-10-27 20:19:52.978362,506,504.82327377821241
2015-10-27 20:19:52.978453,505,504.80855594656134
2015-10-27 20:19:52.978639,506,504.79383811491027
2015-10-27 20:19:52.994025,508,504.77912028325932
2015-10-27 20:19:52.994118,510,504.76440245160825
2015-10-27 20:19:52.994193,510,504.74968461995718
2015-10-27 20:19:53.010248,504,504.73496678830611
2015-10-27 20:19:53.010368,503,504.72024895665504
2015-10-27 20:19:53.010433,508,504.70553112500397
2015-10-27 20:19:53.026291,510,504.6908132933529
2015-10-27 20:19:53.026384,508,504.67609546170183
2015-10-27 20:19:53.026449,508,504.66137763005077
2015-10-27 20:19:53.042191,512,504.6466597983997
2015-10-27 20:19:53.042303,518,504.63194196674863
2015-10-27 20:19:53.042370,520,504.61722413509756
2015-10-27 20:19:53.057962,521,504.5999181129954
2015-10-27 20:19:53.058069,519,504.58261209089335
2015-10-27 20:19:53.058136,514,504.5653060687913
2015-10-27 20:19:53.074204,510,504.54670595146376
2015-10-27 20:19:53.074362,506,504.53224195972643
2015-10-27 20:19:53.074529,505,504.52734431439501
2015-10-27 20:19:53.074595,503,504.516923536391
2015-10-27 20:19:53.090332,497,504.51193297920281
2015-10-27 20:19:53.090463,495,504.50978445237922
2015-10-27 20:19:53.090530,499,504.50823651723999
2015-10-27 20:19:53.106026,499,504.50634183033014
2015-10-27 20:19:53.106169,502,504.50444714342029
2015-10-27 20:19:53.106388,503,504.50255245651056
2015-10-27 20:19:53.122317,506,504.49936367437522
2015-10-27 20:19:53.122410,505,504.49841633092035
2015-10-27 20:19:53.122475,504,504.49841633092035
2015-10-27 20:19:53.138075,514,504.49841633092035
2015-10-27 20:19:53.138163,520,504.49841633092035
2015-10-27 20:19:53.138229,522,504.49841633092035
2015-10-27 20:19:53.154288,518,504.49841633092035
2015-10-27 20:19:53.154393,514,504.49841633092035
2015-10-27 20:19:53.154458,517,504.49841633092035
2015-10-27 20:19:53.170258,519,504.49841633092035
2015-10-27 20:19:53.170374,520,504.49841633092035
2015-10-27 20:19:53.170438,519,504.49841633092035
2015-10-27 20:19:53.185961,509,504.49841633092035
2015-10-27 20:19:53.186050,494,504.49841633092035
2015-10-27 20:19:53.186114,489,504.49841633092035
2015-10-27 20:19:53.202415,511,504.49841633092035
2015-10-27 20:19:53.202627,549,504.49841633092035
2015-10-27 20:19:53.202767,640,504.49841633092035
2015-10-27 20:19:53.218167,750,504.49841633092035
2015-10-27 20:19:53.218288,837,504.49841633092035
2015-10-27 20:19:53.218353,895,504.49841633092035
2015-10-27 20:19:53.234129,876,504.49841633092035
2015-10-27 20:19:53.234223,749,504.49841633092035
2015-10-27 20:19:53.234288,549,504.49841633092035
2015-10-27 20:19:53.250137,417,504.41589786771533
2015-10-27 20:19:53.250231,425,504.3502026424419
2015-10-27 20:19:53.250297,479,504.28450741716858
2015-10-27 20:19:53.266482,511,504.21881219189515
2015-10-27 20:19:53.266589,521,504.15311696662184
2015-10-27 20:19:53.266655,522,504.26533160381382
2015-10-27 20:19:53.282166,519,504.42212117470058
2015-10-27 20:19:53.282278,517,504.57891074558711
2015-10-27 20:19:53.282346,511,504.73570031647387
2015-10-27 20:19:53.298009,511,504.89248988736051
2015-10-27 20:19:53.298084,519,505.04927945824727
2015-10-27 20:19:53.298129,523,505.20606902913391
2015-10-27 20:19:53.314069,521,505.36285860002067
2015-10-27 20:19:53.314178,523,505.5196481709072
2015-10-27 20:19:53.314245,523,505.67643774179396
2015-10-27 20:19:53.314308,525,505.83322731268061
2015-10-27 20:19:53.330134,523,505.99001688356736
2015-10-27 20:19:53.330223,518,506.14680645445401
2015-10-27 20:19:53.330287,518,506.30359602534077
2015-10-27 20:19:53.346245,515,506.46038559622741
2015-10-27 20:19:53.346337,518,506.61717516711417
2015-10-27 20:19:53.346401,521,506.7739647380007
2015-10-27 20:19:53.362147,523,506.93075430888746
2015-10-27 20:19:53.362235,517,507.0875438797741
2015-10-27 20:19:53.362300,518,507.24433345066086
2015-10-27 20:19:53.378233,526,507.40112302154751
2015-10-27 20:19:53.378334,530,507.55791259243426
2015-10-27 20:19:53.378407,529,507.71470216332079
2015-10-27 20:19:53.394116,531,507.87149173420755
2015-10-27 20:19:53.394204,539,508.0282813050942
2015-10-27 20:19:53.394268,545,508.18507087598095
2015-10-27 20:19:53.410122,551,508.3418604468676
2015-10-27 20:19:53.410211,556,508.49865001775436
2015-10-27 20:19:53.410275,555,508.655439588641
2015-10-27 20:19:53.426047,553,508.81222915952776
2015-10-27 20:19:53.426137,560,508.96901873041429
2015-10-27 20:19:53.426201,573,509.12580830130105
2015-10-27 20:19:53.442062,580,509.28259787218769
2015-10-27 20:19:53.442152,580,509.43938744307445
2015-10-27 20:19:53.442217,586,509.5961770139611
2015-10-27 20:19:53.457889,598,509.75296658484785
2015-10-27 20:19:53.457985,608,509.90975615573439
2015-10-27 20:19:53.458050,610,510.06654572662114
2015-10-27 20:19:53.474027,613,510.22333529750779
2015-10-27 20:19:53.474120,616,510.38012486839455
2015-10-27 20:19:53.474185,617,510.53691443928108
2015-10-27 20:19:53.490033,609,510.69370401016783
2015-10-27 20:19:53.490200,597,510.85049358105437
2015-10-27 20:19:53.490271,596,511.00728315194112
2015-10-27 20:19:53.505959,590,511.16407272282788
2015-10-27 20:19:53.506053,578,511.32086229371453
2015-10-27 20:19:53.506118,568,511.47765186460128
2015-10-27 20:19:53.521850,555,511.63444143548793
2015-10-27 20:19:53.522019,538,511.79123100637469
2015-10-27 20:19:53.522085,522,511.94802057726145
2015-10-27 20:19:53.538078,510,512.1048101481482
2015-10-27 20:19:53.538238,495,512.26159971903485
2015-10-27 20:19:53.538304,481,512.41838928992161
2015-10-27 20:19:53.553969,467,512.57517886080836
2015-10-27 20:19:53.554075,449,512.73196843169512
2015-10-27 20:19:53.554140,451,512.88875800258177
2015-10-27 20:19:53.554203,454,513.04554757346841
2015-10-27 20:19:53.570051,455,513.20233714435517
2015-10-27 20:19:53.570140,455,513.35912671524193
2015-10-27 20:19:53.570205,453,513.51591628612869
2015-10-27 20:19:53.586157,448,513.67270585701533
2015-10-27 20:19:53.586247,446,513.82949542790209
2015-10-27 20:19:53.586312,447,513.98628499878873
2015-10-27 20:19:53.602145,454,514.14307456967549
2015-10-27 20:19:53.602237,455,514.29986414056225
2015-10-27 20:19:53.602302,452,514.45665371144901
2015-10-27 20:19:53.617993,450,514.61344328233565
2015-10-27 20:19:53.618083,447,514.77023285322241
2015-10-27 20:19:53.618147,446,514.92702242410917
2015-10-27 20:19:53.634093,446,515.08381199499581
2015-10-27 20:19:53.634208,447,515.24060156588257
2015-10-27 20:19:53.634273,447,515.39739113676933
2015-10-27 20:19:53.649865,453,515.55159251720511
2015-10-27 20:19:53.649956,451,515.70863592800549
2015-10-27 20:19:53.650021,446,515.8698154643962
2015-10-27 20:19:53.665976,444,516.03099500078679
2015-10-27 20:19:53.666069,446,516.19217453717749
2015-10-27 20:19:53.666133,454,516.35335407356808
2015-10-27 20:19:53.681953,457,516.51453360995879
2015-10-27 20:19:53.682045,453,516.67571314634949
2015-10-27 20:19:53.682110,450,516.8368926827402
2015-10-27 20:19:53.697884,447,516.99807221913079
2015-10-27 20:19:53.697973,448,517.1592517555215
2015-10-27 20:19:53.698089,454,517.32043129191209
2015-10-27 20:19:53.713964,457,517.48161082830279
2015-10-27 20:19:53.714055,454,517.64279036469338
2015-10-27 20:19:53.714132,458,517.80396990108409
2015-10-27 20:19:53.730092,465,517.96514943747479
2015-10-27 20:19:53.730218,467,518.12632897386538
2015-10-27 20:19:53.730285,468,518.28750851025609
2015-10-27 20:19:53.745838,466,518.44868804664668
2015-10-27 20:19:53.745927,463,518.60986758303738
2015-10-27 20:19:53.745993,462,518.77104711942809
2015-10-27 20:19:53.761987,462,518.93222665581868
2015-10-27 20:19:53.762081,466,519.09340619220927
2015-10-27 20:19:53.762146,471,519.337104191805
2015-10-27 20:19:53.777780,473,519.56397895346902
2015-10-27 20:19:53.777887,473,519.79085371513304
2015-10-27 20:19:53.777952,481,520.01772847679717
2015-10-27 20:19:53.793780,482,520.2446032384612
2015-10-27 20:19:53.793910,484,520.2935681376598
2015-10-27 20:19:53.794001,485,520.29795810316375
2015-10-27 20:19:53.809999,481,520.3023480686677
2015-10-27 20:19:53.810153,476,520.30673803417153
2015-10-27 20:19:53.810220,475,520.31112799967548
2015-10-27 20:19:53.810284,477,520.31551796517942
2015-10-27 20:19:53.825964,476,520.31990793068337
2015-10-27 20:19:53.826054,478,520.32429789618732
2015-10-27 20:19:53.826118,484,520.32868786169126
2015-10-27 20:19:53.842061,488,520.33307782719521
2015-10-27 20:19:53.842151,488,520.33746779269916
2015-10-27 20:19:53.842216,486,520.3418577582031
2015-10-27 20:19:53.857962,485,520.34624772370705
2015-10-27 20:19:53.858178,484,520.350637689211
2015-10-27 20:19:53.858260,482,520.35502765471495
2015-10-27 20:19:53.874095,481,520.35941762021889
2015-10-27 20:19:53.874210,481,520.36380758572284
2015-10-27 20:19:53.874274,481,520.36819755122679
2015-10-27 20:19:53.889863,485,520.37258751673073
2015-10-27 20:19:53.890011,491,520.37697748223468
2015-10-27 20:19:53.890086,493,520.38136744773863
2015-10-27 20:19:53.905885,487,520.38575741324257
2015-10-27 20:19:53.905973,481,520.39014737874652
2015-10-27 20:19:53.906039,480,520.39453734425047
2015-10-27 20:19:53.922169,484,520.39892730975441
2015-10-27 20:19:53.922260,486,520.40331727525836
2015-10-27 20:19:53.922325,484,520.40770724076231
2015-10-27 20:19:53.937996,484,520.41209720626625
2015-10-27 20:19:53.938087,489,520.41648717177009
2015-10-27 20:19:53.938152,484,520.42087713727403
2015-10-27 20:19:53.953854,486,520.42526710277798
2015-10-27 20:19:53.953945,487,520.42965706828193
2015-10-27 20:19:53.954010,491,520.43404703378587
2015-10-27 20:19:53.969951,489,520.43843699928982
2015-10-27 20:19:53.970043,490,520.44282696479377
2015-10-27 20:19:53.970109,494,520.44721693029771
2015-10-27 20:19:53.985999,492,520.45160689580166
2015-10-27 20:19:53.986097,492,520.45599686130561
2015-10-27 20:19:53.986163,492,520.46038682680955
2015-10-27 20:19:54.001819,493,520.4647767923135
2015-10-27 20:19:54.001914,495,520.46916675781745
2015-10-27 20:19:54.001979,492,520.47355672332139
2015-10-27 20:19:54.017797,494,520.47794668882534
2015-10-27 20:19:54.017903,499,520.48233665432929
2015-10-27 20:19:54.017968,500,520.48672661983323
2015-10-27 20:19:54.033760,496,520.49111658533718
2015-10-27 20:19:54.033867,498,520.49550655084101
2015-10-27 20:19:54.033943,506,520.49989651634496
2015-10-27 20:19:54.049882,509,520.50428648184891
2015-10-27 20:19:54.050005,513,520.50867644735285
2015-10-27 20:19:54.050072,515,520.5130664128568
2015-10-27 20:19:54.050135,511,520.51745637836075
2015-10-27 20:19:54.065832,512,520.52184634386469
2015-10-27 20:19:54.065922,515,520.52623630936864
2015-10-27 20:19:54.065987,520,520.53062627487259
2015-10-27 20:19:54.081940,520,520.53501624037654
2015-10-27 20:19:54.082029,521,520.53940620588048
2015-10-27 20:19:54.082093,520,520.54379617138443
2015-10-27 20:19:54.098124,521,520.54818613688838
2015-10-27 20:19:54.098250,518,520.55257610239232
2015-10-27 20:19:54.098325,514,520.55696606789627
2015-10-27 20:19:54.113943,505,520.56135603340022
2015-10-27 20:19:54.114032,500,520.56574599890416
2015-10-27 20:19:54.114117,493,520.57013596440811
2015-10-27 20:19:54.130052,492,520.57452592991217
2015-10-27 20:19:54.130142,494,520.57891589541612
2015-10-27 20:19:54.130207,497,520.58330586092006
2015-10-27 20:19:54.145780,498,520.58769582642401
2015-10-27 20:19:54.145870,495,520.59208579192796
2015-10-27 20:19:54.145934,492,520.59647575743179
2015-10-27 20:19:54.161920,494,520.60086572293574
2015-10-27 20:19:54.162011,498,520.60525568843968
2015-10-27 20:19:54.162075,501,520.61223384439472
2015-10-27 20:19:54.177740,506,520.61636996998493
2015-10-27 20:19:54.177832,508,520.61636996998493
2015-10-27 20:19:54.177897,504,520.61636996998493
2015-10-27 20:19:54.193939,502,520.61636996998493
2015-10-27 20:19:54.194029,501,520.61636996998493
2015-10-27 20:19:54.194094,501,520.61636996998493
2015-10-27 20:19:54.209863,503,520.61636996998493
2015-10-27 20:19:54.209956,502,520.61636996998493
2015-10-27 20:19:54.210021,488,520.61636996998493
2015-10-27 20:19:54.225863,482,520.61636996998493
2015-10-27 20:19:54.225955,499,520.61636996998493
2015-10-27 20:19:54.226021,532,520.61636996998493
2015-10-27 20:19:54.241736,604,520.61636996998493
2015-10-27 20:19:54.242094,713,520.61636996998493
2015-10-27 20:19:54.242166,806,520.61636996998493
2015-10-27 20:19:54.257934,880,520.61636996998493
2015-10-27 20:19:54.258136,895,520.61636996998493
2015-10-27 20:19:54.258208,788,520.61636996998493
2015-10-27 20:19:54.273970,588,520.61636996998493
2015-10-27 20:19:54.274141,426,520.57861226418845
2015-10-27 20:19:54.274268,412,520.47083738381457
2015-10-27 20:19:54.289908,465,520.36306250344057
2015-10-27 20:19:54.290017,503,520.30115665198684
2015-10-27 20:19:54.290083,517,520.285373669367
2015-10-27 20:19:54.290145,514,520.26959068674716
2015-10-27 20:19:54.305862,515,520.25380770412721
2015-10-27 20:19:54.305951,516,520.23802472150737
2015-10-27 20:19:54.306015,517,520.22224173888753
2015-10-27 20:19:54.321774,520,520.20645875626769
2015-10-27 20:19:54.321865,524,520.19067577364785
2015-10-27 20:19:54.321931,525,520.17489279102801
2015-10-27 20:19:54.337743,520,520.15910980840806
2015-10-27 20:19:54.337834,519,520.14332682578822
2015-10-27 20:19:54.337901,519,520.12754384316838
2015-10-27 20:19:54.353729,521,520.11176086054854
2015-10-27 20:19:54.353819,522,520.0959778779287
2015-10-27 20:19:54.353884,517,520.08019489530886
2015-10-27 20:19:54.369749,514,520.06441191268891
2015-10-27 20:19:54.369839,516,520.04862893006907
2015-10-27 20:19:54.369904,523,520.03284594744923
2015-10-27 20:19:54.385873,523,520.01706296482939
2015-10-27 20:19:54.385960,523,520.00127998220955
2015-10-27 20:19:54.386025,526,519.98549699958971
2015-10-27 20:19:54.401679,527,519.96971401696987
2015-10-27 20:19:54.401769,529,519.95393103434992
2015-10-27 20:19:54.401834,529,519.93814805173008
2015-10-27 20:19:54.417785,528,519.92236506911024
2015-10-27 20:19:54.417875,528,519.9065820864904
2015-10-27 20:19:54.417940,531,519.89079910387056
2015-10-27 20:19:54.433841,533,519.87501612125072
2015-10-27 20:19:54.433943,533,519.85923313863077
2015-10-27 20:19:54.434007,541,519.84345015601093
2015-10-27 20:19:54.449887,549,519.82766717339109
2015-10-27 20:19:54.449978,548,519.81188419077125
2015-10-27 20:19:54.450046,563,519.79610120815141
2015-10-27 20:19:54.465674,581,519.78031822553157
2015-10-27 20:19:54.465766,590,519.76453524291162
2015-10-27 20:19:54.465832,596,519.74875226029178
2015-10-27 20:19:54.481822,602,519.73296927767194
2015-10-27 20:19:54.481916,609,519.7171862950521
2015-10-27 20:19:54.481983,620,519.70140331243226
2015-10-27 20:19:54.497594,627,519.68562032981242
2015-10-27 20:19:54.497718,628,519.66983734719247
2015-10-27 20:19:54.497802,624,519.65405436457263
2015-10-27 20:19:54.513641,621,519.63827138195279
2015-10-27 20:19:54.513745,617,519.62248839933284
2015-10-27 20:19:54.513811,611,519.606705416713
2015-10-27 20:19:54.529664,601,519.59092243409305
2015-10-27 20:19:54.529773,594,519.57513945147321
2015-10-27 20:19:54.529839,586,519.55935646885337
2015-10-27 20:19:54.529901,578,519.54357348623341
2015-10-27 20:19:54.545654,562,519.52779050361369
2015-10-27 20:19:54.545745,548,519.51200752099373
2015-10-27 20:19:54.545810,532,519.49622453837389
2015-10-27 20:19:54.561885,523,519.48044155575406
2015-10-27 20:19:54.561976,513,519.46465857313422
2015-10-27 20:19:54.562042,502,519.44887559051426
2015-10-27 20:19:54.577688,490,519.43309260789454
2015-10-27 20:19:54.577777,481,519.41730962527458
2015-10-27 20:19:54.577842,471,519.40152664265474
2015-10-27 20:19:54.593757,467,519.3857436600349
2015-10-27 20:19:54.593847,465,519.36996067741507
2015-10-27 20:19:54.593911,462,519.35417769479511
2015-10-27 20:19:54.609957,463,519.33839471217539
2015-10-27 20:19:54.610047,467,519.32261172955543
2015-10-27 20:19:54.610112,473,519.30682874693571
2015-10-27 20:19:54.625599,475,519.29104576431575
2015-10-27 20:19:54.625662,474,519.27526278169591
2015-10-27 20:19:54.625706,478,519.25947979907596
2015-10-27 20:19:54.641880,484,519.24369681645624
2015-10-27 20:19:54.641989,486,519.22791383383628
2015-10-27 20:19:54.642056,486,519.21213085121656
2015-10-27 20:19:54.657759,486,519.1963478685966
2015-10-27 20:19:54.657879,487,519.18056488597676
2015-10-27 20:19:54.657945,487,519.16478190335692
2015-10-27 20:19:54.673744,484,519.14899892073709
2015-10-27 20:19:54.673835,487,519.13321593811725
2015-10-27 20:19:54.673900,490,519.11743295549741
2015-10-27 20:19:54.689743,490,519.10164997287745
2015-10-27 20:19:54.689832,493,519.08586699025761
2015-10-27 20:19:54.689896,494,519.07008400763777
2015-10-27 20:19:54.705746,499,519.05430102501793
2015-10-27 20:19:54.705852,504,519.04170682453343
2015-10-27 20:19:54.705917,509,519.0300599675038
2015-10-27 20:19:54.721593,509,519.01841311047428
2015-10-27 20:19:54.721725,505,519.00676625344477
2015-10-27 20:19:54.721794,503,518.99511939641513
2015-10-27 20:19:54.737522,506,518.9834725393855
2015-10-27 20:19:54.737577,512,518.96630254968329
2015-10-27 20:19:54.737614,513,518.96258119206357
2015-10-27 20:19:54.753458,509,518.95497754876726
2015-10-27 20:19:54.753523,508,518.94607981024546
2015-10-27 20:19:54.753561,505,518.94097144554337
2015-10-27 20:19:54.769506,502,518.94482883556293
2015-10-27 20:19:54.769573,505,518.94868622558249
2015-10-27 20:19:54.769610,509,518.95254361560205
2015-10-27 20:19:54.785475,507,518.95640100562161
2015-10-27 20:19:54.785538,507,518.96025839564118
2015-10-27 20:19:54.785576,508,518.96411578566074
2015-10-27 20:19:54.785611,506,519.00573088147678
2015-10-27 20:19:54.801498,497,519.11606905664485
2015-10-27 20:19:54.801554,497,519.2264072318128
2015-10-27 20:19:54.801591,503,519.2908763780606
2015-10-27 20:19:54.817550,509,519.3092226554744
2015-10-27 20:19:54.817644,506,519.32756893288831
2015-10-27 20:19:54.817746,501,519.34591521030222
2015-10-27 20:19:54.833741,504,519.36426148771602
2015-10-27 20:19:54.833834,507,519.38260776512993
2015-10-27 20:19:54.833899,509,519.40095404254384
2015-10-27 20:19:54.849741,505,519.41930031995776
2015-10-27 20:19:54.849834,506,519.43764659737155
2015-10-27 20:19:54.849899,513,519.45599287478547
2015-10-27 20:19:54.865808,512,519.47433915219938
2015-10-27 20:19:54.865903,504,519.49268542961318
2015-10-27 20:19:54.865968,503,519.51103170702709
2015-10-27 20:19:54.881507,510,519.529377984441
2015-10-27 20:19:54.881564,511,519.5477242618548
2015-10-27 20:19:54.881600,509,519.56607053926871
2015-10-27 20:19:54.897534,509,519.58441681668262
2015-10-27 20:19:54.897627,507,519.60276309409642
2015-10-27 20:19:54.897692,504,519.62110937151033
2015-10-27 20:19:54.913594,503,519.63945564892424
2015-10-27 20:19:54.913686,509,519.65780192633804
2015-10-27 20:19:54.913751,512,519.67614820375195
2015-10-27 20:19:54.929650,512,519.69449448116586
2015-10-27 20:19:54.929740,513,519.71284075857966
2015-10-27 20:19:54.929804,516,519.73118703599357
2015-10-27 20:19:54.945713,516,519.74953331340748
2015-10-27 20:19:54.945804,513,519.76787959082128
2015-10-27 20:19:54.945869,514,519.78622586823508
2015-10-27 20:19:54.961493,515,519.80457214564899
2015-10-27 20:19:54.961635,510,519.82291842306267
2015-10-27 20:19:54.961704,510,519.84126470047659
2015-10-27 20:19:54.977387,510,519.85961097789038
2015-10-27 20:19:54.977441,507,519.87795725530418
2015-10-27 20:19:54.977478,503,519.89630353271798
2015-10-27 20:19:54.993384,504,519.91464981013189
2015-10-27 20:19:54.993486,502,519.9329960875458
2015-10-27 20:19:54.993556,505,519.9513423649596
2015-10-27 20:19:55.009392,506,519.9696886423734
2015-10-27 20:19:55.009497,509,519.98803491978731
2015-10-27 20:19:55.009562,507,520.00638119720111
2015-10-27 20:19:55.025455,505,520.02472747461502
2015-10-27 20:19:55.025565,503,520.04307375202882
2015-10-27 20:19:55.025647,503,520.06142002944273
2015-10-27 20:19:55.025711,508,520.07976630685653
2015-10-27 20:19:55.041547,518,520.09811258427032
2015-10-27 20:19:55.041636,520,520.11645886168424
2015-10-27 20:19:55.041804,518,520.13480513909815
2015-10-27 20:19:55.057456,518,520.15315141651195
2015-10-27 20:19:55.057546,517,520.17149769392586
2015-10-27 20:19:55.057611,520,520.18984397133977
2015-10-27 20:19:55.073469,516,520.20819024875357
2015-10-27 20:19:55.073558,515,520.22653652616748
2015-10-27 20:19:55.073622,515,520.24488280358139
2015-10-27 20:19:55.089483,517,520.26322908099519
2015-10-27 20:19:55.089573,517,520.2815753584091
2015-10-27 20:19:55.089639,516,520.29992163582301
2015-10-27 20:19:55.105468,515,520.31826791323681
2015-10-27 20:19:55.105557,510,520.33661419065072
2015-10-27 20:19:55.105622,509,520.35496046806463
2015-10-27 20:19:55.121471,511,520.37330674547843
2015-10-27 20:19:55.121561,499,520.39165302289234
2015-10-27 20:19:55.121626,493,520.40999930030625
2015-10-27 20:19:55.137485,499,520.42834557772017
2015-10-27 20:19:55.137592,499,520.44669185513396
2015-10-27 20:19:55.137658,494,520.46503813254787
2015-10-27 20:19:55.153404,485,520.48338440996179
2015-10-27 20:19:55.153496,482,520.5017306873757
2015-10-27 20:19:55.153561,487,520.52007696478961
2015-10-27 20:19:55.169581,490,520.53842324220341
2015-10-27 20:19:55.169671,492,520.55676951961743
2015-10-27 20:19:55.169736,493,520.57511579703123
2015-10-27 20:19:55.185452,492,520.59346207444514
2015-10-27 20:19:55.185660,488,520.61180835185905
2015-10-27 20:19:55.185783,486,520.63015462927285
2015-10-27 20:19:55.201450,487,520.64850090668676
2015-10-27 20:19:55.201542,479,520.66684718410067
2015-10-27 20:19:55.201607,483,520.68519346151459
2015-10-27 20:19:55.217371,492,520.7035397389285
2015-10-27 20:19:55.217467,493,520.7218860163423
2015-10-27 20:19:55.217535,484,520.74023229375621
2015-10-27 20:19:55.233499,478,520.75538978903478
2015-10-27 20:19:55.233607,469,520.76959994085837
2015-10-27 20:19:55.233672,475,520.78381009268196
2015-10-27 20:19:55.249503,505,520.79802024450566
2015-10-27 20:19:55.249608,563,520.81223039632926
2015-10-27 20:19:55.249675,666,520.82644054815296
2015-10-27 20:19:55.265502,755,520.84617383264924
2015-10-27 20:19:55.265609,825,520.85245848506293
2015-10-27 20:19:55.265674,866,520.8626254231533
2015-10-27 20:19:55.265736,810,520.87408645646906
2015-10-27 20:19:55.281562,643,520.88175811596534
2015-10-27 20:19:55.281651,443,520.8391707810373
2015-10-27 20:19:55.281716,371,520.46793972091439
2015-10-27 20:19:55.297539,417,520.09853533150147
2015-10-27 20:19:55.297628,471,519.72913094208843
2015-10-27 20:19:55.297693,490,519.3597265526754
2015-10-27 20:19:55.313551,498,518.99032216326236
2015-10-27 20:19:55.313640,501,518.59891815501567
2015-10-27 20:19:55.313705,503,518.28432365358753
2015-10-27 20:19:55.329670,505,517.96972915215952
2015-10-27 20:19:55.329762,506,517.65513465073138
2015-10-27 20:19:55.329845,509,517.34054014930337
2015-10-27 20:19:55.345514,515,517.02594564787523
2015-10-27 20:19:55.345603,519,516.71135114644721
2015-10-27 20:19:55.345668,515,516.39675664501908
2015-10-27 20:19:55.361734,512,516.08216214359106
2015-10-27 20:19:55.361834,508,515.76756764216293
2015-10-27 20:19:55.361900,513,515.45297314073491
2015-10-27 20:19:55.377566,521,515.13837863930689
2015-10-27 20:19:55.377683,522,514.82378413787876
2015-10-27 20:19:55.377750,519,514.50918963645074
2015-10-27 20:19:55.393613,522,514.19459513502261
2015-10-27 20:19:55.393728,530,513.88000063359459
2015-10-27 20:19:55.393794,530,513.56540613216646
2015-10-27 20:19:55.409538,524,513.25081163073844
2015-10-27 20:19:55.409628,527,512.93621712931031
2015-10-27 20:19:55.409691,532,512.62162262788229
2015-10-27 20:19:55.425555,534,512.30702812645416
2015-10-27 20:19:55.425723,536,511.99243362502614
2015-10-27 20:19:55.425825,535,511.67783912359801
2015-10-27 20:19:55.441355,540,511.36324462216999
2015-10-27 20:19:55.441661,546,511.04865012074185
2015-10-27 20:19:55.442063,549,510.73405561931384
2015-10-27 20:19:55.457550,555,510.4194611178857
2015-10-27 20:19:55.457643,563,510.10486661645768
2015-10-27 20:19:55.457718,564,509.79027211502955
2015-10-27 20:19:55.473475,566,509.47567761360153
2015-10-27 20:19:55.473582,571,509.1610831121734
2015-10-27 20:19:55.473649,574,508.84648861074538
2015-10-27 20:19:55.489461,578,508.53189410931725
2015-10-27 20:19:55.489725,583,508.21729960788923
2015-10-27 20:19:55.489811,597,507.9027051064611
2015-10-27 20:19:55.505435,605,507.58811060503308
2015-10-27 20:19:55.505541,606,507.27351610360506
2015-10-27 20:19:55.505608,611,506.95892160217693
2015-10-27 20:19:55.505687,609,506.64432710074891
2015-10-27 20:19:55.521499,604,506.32973259932078
2015-10-27 20:19:55.521588,604,506.01513809789265
2015-10-27 20:19:55.521654,602,505.70054359646451
2015-10-27 20:19:55.537558,595,505.38594909503638
2015-10-27 20:19:55.537647,584,505.07135459360825
2015-10-27 20:19:55.537719,576,504.75676009218
2015-10-27 20:19:55.553448,563,504.44216559075198
2015-10-27 20:19:55.553525,549,504.12757108932385
2015-10-27 20:19:55.553570,537,503.81297658789572
2015-10-27 20:19:55.569452,520,503.49838208646759
2015-10-27 20:19:55.569544,506,503.18378758503945
2015-10-27 20:19:55.569679,494,502.86919308361121
2015-10-27 20:19:55.585251,481,502.55459858218308
2015-10-27 20:19:55.585306,466,502.24000408075494
2015-10-27 20:19:55.585391,457,501.93188005545437
2015-10-27 20:19:55.601251,448,501.6354028871832
2015-10-27 20:19:55.601303,434,501.32522324691593
2015-10-27 20:19:55.601340,429,501.01548327027615
2015-10-27 20:19:55.617278,436,500.70574329363637
2015-10-27 20:19:55.617341,431,500.39988560267318
2015-10-27 20:19:55.617385,423,500.08316747007837
2015-10-27 20:19:55.633192,420,499.76748959279553
2015-10-27 20:19:55.633257,428,499.45181171551258
2015-10-27 20:19:55.633302,432,499.13613383822951
2015-10-27 20:19:55.649207,427,498.82045596094656
2015-10-27 20:19:55.649274,424,498.50477808366361
2015-10-27 20:19:55.649319,428,498.18910020638066
2015-10-27 20:19:55.665264,427,497.87342232909771
2015-10-27 20:19:55.665330,423,497.55774445181487
2015-10-27 20:19:55.665378,424,497.24206657453192
2015-10-27 20:19:55.681253,426,496.92638869724897
2015-10-27 20:19:55.681364,433,496.61071081996602
2015-10-27 20:19:55.681449,435,496.29503294268306
2015-10-27 20:19:55.697321,435,495.97935506540011
2015-10-27 20:19:55.697492,437,495.66367718811728
2015-10-27 20:19:55.697625,436,495.34799931083433
2015-10-27 20:19:55.713226,436,495.03232143355137
2015-10-27 20:19:55.713317,440,494.71664355626842
2015-10-27 20:19:55.713384,439,494.40096567898547
2015-10-27 20:19:55.729392,434,494.08528780170252
2015-10-27 20:19:55.729504,438,493.76960992441957
2015-10-27 20:19:55.729570,447,493.4539320471365
2015-10-27 20:19:55.745213,448,493.13825416985367
2015-10-27 20:19:55.745320,442,492.82257629257072
2015-10-27 20:19:55.745388,438,492.50689841528776
2015-10-27 20:19:55.761193,442,492.19122053800481
2015-10-27 20:19:55.761310,441,491.87554266072186
2015-10-27 20:19:55.761358,441,491.55986478343891
2015-10-27 20:19:55.761404,446,491.24418690615596
2015-10-27 20:19:55.777322,446,490.92850902887301
2015-10-27 20:19:55.777395,443,490.61283115159017
2015-10-27 20:19:55.777448,440,490.29715327430722
2015-10-27 20:19:55.793243,443,489.98147539702427
2015-10-27 20:19:55.793331,453,489.66579751974132
2015-10-27 20:19:55.793393,456,489.35011964245837
2015-10-27 20:19:55.809228,452,489.07573500487786
2015-10-27 20:19:55.809318,449,489.12999409249244
2015-10-27 20:19:55.809383,449,489.18242650939715
2015-10-27 20:19:55.825276,451,489.23485892630185
2015-10-27 20:19:55.825466,449,489.28729134320645
2015-10-27 20:19:55.825622,449,489.33972376011104
2015-10-27 20:19:55.841333,446,489.41415579584941
2015-10-27 20:19:55.841424,444,489.41307241999471
2015-10-27 20:19:55.841488,447,489.41198904413989
2015-10-27 20:19:55.857159,452,489.41090566828518
2015-10-27 20:19:55.857383,452,489.40982229243036
2015-10-27 20:19:55.857444,449,489.40873891657566
2015-10-27 20:19:55.873283,448,489.40765554072084
2015-10-27 20:19:55.873517,453,489.40657216486613
2015-10-27 20:19:55.873620,455,489.40548878901132
2015-10-27 20:19:55.889317,454,489.40440541315661
2015-10-27 20:19:55.889454,456,489.40332203730179
2015-10-27 20:19:55.889625,459,489.40223866144709
2015-10-27 20:19:55.905485,460,489.40115528559227
2015-10-27 20:19:55.905565,456,489.40007190973756
2015-10-27 20:19:55.905610,453,489.39898853388274
2015-10-27 20:19:55.921454,455,489.39790515802804
2015-10-27 20:19:55.921623,453,489.39682178217322
2015-10-27 20:19:55.921682,450,489.39573840631851
2015-10-27 20:19:55.937316,460,489.3946550304637
2015-10-27 20:19:55.937420,465,489.39357165460899
2015-10-27 20:19:55.937471,468,489.39248827875417
2015-10-27 20:19:55.953290,465,489.39140490289947
2015-10-27 20:19:55.953447,466,489.39032152704465
2015-10-27 20:19:55.953568,473,489.38923815118994
2015-10-27 20:19:55.969194,473,489.38815477533512
2015-10-27 20:19:55.969268,472,489.38707139948031
2015-10-27 20:19:55.969304,469,489.3859880236256
2015-10-27 20:19:55.985184,470,489.3849046477709
2015-10-27 20:19:55.985292,470,489.38382127191608
2015-10-27 20:19:55.985358,469,489.38273789606137
2015-10-27 20:19:56.001370,472,489.38165452020655
2015-10-27 20:19:56.001508,475,489.38057114435185
2015-10-27 20:19:56.001580,472,489.37948776849703
2015-10-27 20:19:56.001645,473,489.37840439264232
2015-10-27 20:19:56.017503,478,489.3773210167875
2015-10-27 20:19:56.017605,485,489.3762376409328
2015-10-27 20:19:56.017783,488,489.37515426507798
2015-10-27 20:19:56.033244,488,489.37407088922328
2015-10-27 20:19:56.033333,492,489.37298751336846
2015-10-27 20:19:56.033398,498,489.37190413751375
2015-10-27 20:19:56.049241,501,489.37082076165893
2015-10-27 20:19:56.049330,506,489.36973738580423
2015-10-27 20:19:56.049395,510,489.36865400994952
2015-10-27 20:19:56.065209,511,489.3675706340947
2015-10-27 20:19:56.065299,510,489.36648725824
2015-10-27 20:19:56.065364,506,489.36540388238518
2015-10-27 20:19:56.081230,510,489.36432050653048
2015-10-27 20:19:56.081330,516,489.36323713067566
2015-10-27 20:19:56.081439,515,489.36215375482084
2015-10-27 20:19:56.097225,516,489.36107037896613
2015-10-27 20:19:56.097317,519,489.35998700311131
2015-10-27 20:19:56.097381,518,489.35890362725661
2015-10-27 20:19:56.113451,518,489.35782025140179
2015-10-27 20:19:56.113542,517,489.35026639941952
2015-10-27 20:19:56.113628,512,489.33106569040751
2015-10-27 20:19:56.129333,504,489.32556745339195
2015-10-27 20:19:56.129423,498,489.31962955274878
2015-10-27 20:19:56.129489,501,489.3136916521056
2015-10-27 20:19:56.145439,504,489.30387146578596
2015-10-27 20:19:56.145598,502,489.30491172109771
2015-10-27 20:19:56.145712,502,489.30491172109771
2015-10-27 20:19:56.161167,505,489.30491172109771
2015-10-27 20:19:56.161254,504,489.30491172109771
2015-10-27 20:19:56.161362,509,489.30491172109771
2015-10-27 20:19:56.177998,515,489.30491172109771
2015-10-27 20:19:56.178320,514,489.30491172109771
2015-10-27 20:19:56.178406,514,489.30491172109771
2015-10-27 20:19:56.193083,514,489.30491172109771
2015-10-27 20:19:56.193173,512,489.30491172109771
2015-10-27 20:19:56.193234,513,489.30491172109771
2015-10-27 20:19:56.216336,513,489.30491172109771
2015-10-27 20:19:56.216446,516,489.30491172109771
2015-10-27 20:19:56.216518,517,489.30491172109771
2015-10-27 20:19:56.226528,517,489.30491172109771
2015-10-27 20:19:56.226635,518,489.30491172109771
2015-10-27 20:19:56.226982,510,489.30491172109771
2015-10-27 20:19:56.248888,502,489.30491172109771
2015-10-27 20:19:56.249012,516,489.30491172109771
2015-10-27 20:19:56.249096,551,489.30491172109771
2015-10-27 20:19:56.250758,633,489.30491172109771
2015-10-27 20:19:56.257173,727,489.30491172109771
2015-10-27 20:19:56.257261,804,489.30491172109771
2015-10-27 20:19:56.257532,869,489.30491172109771
2015-10-27 20:19:56.273157,863,489.30491172109771
2015-10-27 20:19:56.273254,748,489.30491172109771
2015-10-27 20:19:56.273327,555,489.30491172109771
2015-10-27 20:19:56.289142,415,489.28533936465817
2015-10-27 20:19:56.289231,413,489.24843609045968
2015-10-27 20:19:56.289295,472,489.21153281626107
2015-10-27 20:19:56.305124,510,489.17462954206258
2015-10-27 20:19:56.305214,519,489.13772626786397
2015-10-27 20:19:56.305280,518,489.10082299366547
2015-10-27 20:19:56.321267,519,489.06391971946687
2015-10-27 20:19:56.321358,520,489.02701644526837
2015-10-27 20:19:56.321422,518,488.99011317106977
2015-10-27 20:19:56.337167,520,489.17338523815101
2015-10-27 20:19:56.337238,526,489.35949933559709
2015-10-27 20:19:56.337284,529,489.54561343304317
2015-10-27 20:19:56.353227,533,489.73172753048914
2015-10-27 20:19:56.353325,533,489.91784162793522
2015-10-27 20:19:56.353391,526,490.1039557253813
2015-10-27 20:19:56.369100,518,490.29006982282726
2015-10-27 20:19:56.369191,518,490.47618392027334
2015-10-27 20:19:56.369256,521,490.66229801771942
2015-10-27 20:19:56.385214,526,490.84841211516539
2015-10-27 20:19:56.385313,529,491.03452621261147
2015-10-27 20:19:56.385379,531,491.22064031005755
2015-10-27 20:19:56.401272,533,491.40675440750351
2015-10-27 20:19:56.401406,535,491.59286850494959
2015-10-27 20:19:56.401476,535,491.77898260239567
2015-10-27 20:19:56.417103,534,491.96509669984164
2015-10-27 20:19:56.417196,537,492.15121079728772
2015-10-27 20:19:56.417262,542,492.3373248947338
2015-10-27 20:19:56.433150,543,492.52343899217976
2015-10-27 20:19:56.433277,548,492.70955308962584
2015-10-27 20:19:56.433344,550,492.89566718707192
2015-10-27 20:19:56.449043,549,493.08178128451789
2015-10-27 20:19:56.449151,554,493.26789538196397
2015-10-27 20:19:56.449217,560,493.45400947941005
2015-10-27 20:19:56.465051,569,493.64012357685601
2015-10-27 20:19:56.465161,575,493.82623767430209
2015-10-27 20:19:56.465228,580,494.01235177174817
2015-10-27 20:19:56.481045,588,494.19846586919425
2015-10-27 20:19:56.481155,601,494.38457996664022
2015-10-27 20:19:56.481222,611,494.5706940640863
2015-10-27 20:19:56.481284,617,494.75680816153238
2015-10-27 20:19:56.497066,620,494.94292225897834
2015-10-27 20:19:56.497116,624,495.12903635642442
2015-10-27 20:19:56.497151,630,495.3151504538705
2015-10-27 20:19:56.513350,640,495.50126455131647
2015-10-27 20:19:56.513442,643,495.68737864876255
2015-10-27 20:19:56.513507,641,495.87349274620863
2015-10-27 20:19:56.529209,633,496.05960684365459
2015-10-27 20:19:56.529366,624,496.24572094110067
2015-10-27 20:19:56.529446,619,496.43183503854675
2015-10-27 20:19:56.545066,605,496.61794913599272
2015-10-27 20:19:56.545155,599,496.8040632334388
2015-10-27 20:19:56.545220,594,496.99017733088488
2015-10-27 20:19:56.561198,581,497.17629142833084
2015-10-27 20:19:56.561289,564,497.36240552577681
2015-10-27 20:19:56.561353,548,497.54851962322289
2015-10-27 20:19:56.577145,532,497.73463372066885
2015-10-27 20:19:56.577234,522,497.92074781811493
2015-10-27 20:19:56.577298,512,498.1068619155609
2015-10-27 20:19:56.593173,499,498.29297601300698
2015-10-27 20:19:56.593263,489,498.47909011045294
2015-10-27 20:19:56.593328,484,498.66520420789891
2015-10-27 20:19:56.609190,478,498.85131830534488
2015-10-27 20:19:56.609279,478,499.03743240279096
2015-10-27 20:19:56.609344,476,499.22354650023692
2015-10-27 20:19:56.625333,474,499.409660597683
2015-10-27 20:19:56.625455,477,499.59577469512897
2015-10-27 20:19:56.625520,477,499.78188879257493
2015-10-27 20:19:56.641150,474,499.9680028900209
2015-10-27 20:19:56.641241,471,500.15411698746698
2015-10-27 20:19:56.641306,469,500.34023108491294
2015-10-27 20:19:56.657022,472,500.52634518235902
2015-10-27 20:19:56.657115,476,500.71245927980499
2015-10-27 20:19:56.657181,475,500.89857337725107
2015-10-27 20:19:56.673183,473,501.08468747469703
2015-10-27 20:19:56.673313,471,501.27623179295881
2015-10-27 20:19:56.673379,476,501.46777611122047
2015-10-27 20:19:56.689201,477,501.65932042948225
2015-10-27 20:19:56.689329,472,501.85086474774391
2015-10-27 20:19:56.689395,472,502.04240906600569
2015-10-27 20:19:56.705079,484,502.23395338426735
2015-10-27 20:19:56.705186,488,502.42549770252913
2015-10-27 20:19:56.705252,490,502.61669526902017
2015-10-27 20:19:56.720941,491,502.80331704629373
2015-10-27 20:19:56.721018,490,503.00433479910453
2015-10-27 20:19:56.721064,492,503.20629989537031
2015-10-27 20:19:56.737179,494,503.40826499163597
2015-10-27 20:19:56.737339,493,503.60893599267615
2015-10-27 20:19:56.737405,494,503.80960699371644
2015-10-27 20:19:56.737468,493,504.01027799475662
2015-10-27 20:19:56.753182,490,504.20836080534593
2015-10-27 20:19:56.753272,488,504.40644361593502
2015-10-27 20:19:56.753336,493,504.60452642652433
2015-10-27 20:19:56.769172,496,504.81157499183519
2015-10-27 20:19:56.769261,497,505.01603536669506
2015-10-27 20:19:56.769325,497,505.22049574155494
2015-10-27 20:19:56.785154,490,505.42495611641482
2015-10-27 20:19:56.785243,489,505.62941649127481
2015-10-27 20:19:56.785308,495,505.83706564827003
2015-10-27 20:19:56.801223,497,506.04471480526524
2015-10-27 20:19:56.801557,494,506.25236396226046
2015-10-27 20:19:56.801680,494,506.47699728524412
2015-10-27 20:19:56.817006,498,506.71896152598686
2015-10-27 20:19:56.817109,497,506.96092576672947
2015-10-27 20:19:56.817250,494,507.20289000747221
2015-10-27 20:19:56.833087,491,507.45028446903063
2015-10-27 20:19:56.833178,500,507.69733217881844
2015-10-27 20:19:56.833243,506,507.94437988860636
2015-10-27 20:19:56.849105,498,508.19142759839417
2015-10-27 20:19:56.849252,496,508.43847530818198
2015-10-27 20:19:56.849320,501,508.46534767669004
2015-10-27 20:19:56.865103,502,508.48937801483328
2015-10-27 20:19:56.865193,509,508.51340835297651
2015-10-27 20:19:56.865312,512,508.53743869111986
2015-10-27 20:19:56.881250,512,508.56146902926309
2015-10-27 20:19:56.881383,507,508.58420527218095
2015-10-27 20:19:56.881452,504,508.61237173591451
2015-10-27 20:19:56.897111,504,508.64148554310293
2015-10-27 20:19:56.897205,503,508.67059935029147
2015-10-27 20:19:56.897272,496,508.69971315747989
2015-10-27 20:19:56.913091,497,508.72753286944294
2015-10-27 20:19:56.913183,504,508.75595317309023
2015-10-27 20:19:56.913248,503,508.78437347673753
2015-10-27 20:19:56.928853,499,508.81279378038482
2015-10-27 20:19:56.928967,501,508.84121408403212
2015-10-27 20:19:56.929053,506,508.86963438767941
2015-10-27 20:19:56.945106,509,508.89805469132671
2015-10-27 20:19:56.945214,505,508.92647499497389
2015-10-27 20:19:56.945281,502,508.95489529862118
2015-10-27 20:19:56.960993,501,508.98331560226836
2015-10-27 20:19:56.961104,501,509.01173590591566
2015-10-27 20:19:56.961170,502,509.03109754298441
2015-10-27 20:19:56.976884,508,509.06640309072975
2015-10-27 20:19:56.976994,513,509.11291583187722
2015-10-27 20:19:56.977065,512,509.15813447779919
2015-10-27 20:19:56.977128,507,509.20335312372106
2015-10-27 20:19:56.993159,506,509.24693092264692
2015-10-27 20:19:56.993253,508,509.29723303761398
2015-10-27 20:19:56.993318,507,509.34753515258103
2015-10-27 20:19:57.009125,504,509.39783726754808
2015-10-27 20:19:57.009219,510,509.44813938251514
2015-10-27 20:19:57.009283,517,509.49844149748219
2015-10-27 20:19:57.024890,513,509.54874361244924
2015-10-27 20:19:57.024979,500,509.5990457274163
2015-10-27 20:19:57.025163,497,509.64675965193237
2015-10-27 20:19:57.041017,511,509.69447357644856
2015-10-27 20:19:57.041080,518,509.74218750096463
2015-10-27 20:19:57.041124,518,509.78990142548071
2015-10-27 20:19:57.057127,514,509.83761534999678
2015-10-27 20:19:57.057218,511,509.88532927451286
2015-10-27 20:19:57.057283,518,509.93304319902904
2015-10-27 20:19:57.073123,518,509.98075712354512
2015-10-27 20:19:57.073239,515,510.02847104806131
2015-10-27 20:19:57.073304,513,510.07618497257738
2015-10-27 20:19:57.089007,509,510.12389889709357
2015-10-27 20:19:57.089097,502,510.17161282160964
2015-10-27 20:19:57.089162,508,510.21932674612583
2015-10-27 20:19:57.104971,513,510.2670406706419
2015-10-27 20:19:57.105068,516,510.31475459515809
2015-10-27 20:19:57.105133,521,510.36246851967417
2015-10-27 20:19:57.120844,523,510.41018244419024
2015-10-27 20:19:57.120945,518,510.45789636870632
2015-10-27 20:19:57.121016,519,510.50561029322239
2015-10-27 20:19:57.137213,522,510.55332421773846
2015-10-27 20:19:57.137310,522,510.60103814225454
2015-10-27 20:19:57.137376,519,510.64875206677061
2015-10-27 20:19:57.153049,521,510.6964659912868
2015-10-27 20:19:57.153141,529,510.74417991580287
2015-10-27 20:19:57.153206,526,510.79189384031906
2015-10-27 20:19:57.168815,519,510.83960776483514
2015-10-27 20:19:57.168906,521,510.88732168935144
2015-10-27 20:19:57.168971,525,510.93503561386751
2015-10-27 20:19:57.184827,522,510.9827495383837
2015-10-27 20:19:57.184934,517,511.03046346289977
2015-10-27 20:19:57.185000,509,511.07817738741596
2015-10-27 20:19:57.201019,503,511.12046109111634
2015-10-27 20:19:57.201179,495,511.16274479481672
2015-10-27 20:19:57.201245,491,511.20502849851698
2015-10-27 20:19:57.216928,494,511.24731220221724
2015-10-27 20:19:57.217034,499,511.28959590591762
2015-10-27 20:19:57.217101,499,511.331879609618
2015-10-27 20:19:57.217215,497,511.37416331331838
2015-10-27 20:19:57.232995,499,511.41679376878926
2015-10-27 20:19:57.233085,501,511.46400001347797
2015-10-27 20:19:57.233151,499,511.49681028262921
2015-10-27 20:19:57.248916,499,511.52867320832559
2015-10-27 20:19:57.249028,496,511.56053613402196
2015-10-27 20:19:57.249109,497,511.59369315494382
2015-10-27 20:19:57.265018,501,511.62685017586568
2015-10-27 20:19:57.265108,502,511.66000719678743
2015-10-27 20:19:57.265174,498,511.69575240816027
2015-10-27 20:19:57.280831,496,511.73149761953312
2015-10-27 20:19:57.280919,496,511.76724283090596
2015-10-27 20:19:57.280995,493,511.79402228755714
2015-10-27 20:19:57.296964,497,511.8233899346593
2015-10-27 20:19:57.297056,491,511.85275758176147
2015-10-27 20:19:57.297120,478,511.88212522886363
2015-10-27 20:19:57.312917,482,511.91149287596579
2015-10-27 20:19:57.313012,509,511.93767174093261
2015-10-27 20:19:57.313076,573,511.96385060589955
2015-10-27 20:19:57.329039,677,511.99002947086626
2015-10-27 20:19:57.329130,769,512.47499820766325
2015-10-27 20:19:57.329195,846,513.24586240667043
2015-10-27 20:19:57.344948,881,514.01672660567772
2015-10-27 20:19:57.345038,800,514.7875908046849
2015-10-27 20:19:57.345103,620,515.55302478287626
2015-10-27 20:19:57.360938,441,516.16813966630855
2015-10-27 20:19:57.361028,390,516.29823602162969
2015-10-27 20:19:57.361093,432,516.29287381701386
2015-10-27 20:19:57.376764,478,516.28751161239791
2015-10-27 20:19:57.376901,495,516.28214940778207
2015-10-27 20:19:57.376970,499,516.27678720316612
2015-10-27 20:19:57.392976,499,516.27142499855029
2015-10-27 20:19:57.393070,498,516.26606279393445
2015-10-27 20:19:57.393135,498,516.2607005893185
2015-10-27 20:19:57.408987,499,516.25663247992816
2015-10-27 20:19:57.409105,498,516.247134149722
2015-10-27 20:19:57.409170,501,516.23668847606109
2015-10-27 20:19:57.424893,502,516.22624280240007
2015-10-27 20:19:57.425001,503,516.21579712873904
2015-10-27 20:19:57.425067,505,516.20664555030351
2015-10-27 20:19:57.440710,508,516.19689338018372
2015-10-27 20:19:57.440820,507,516.18714121006394
2015-10-27 20:19:57.440886,501,516.17738903994416
2015-10-27 20:19:57.456930,501,516.16763686982438
2015-10-27 20:19:57.457081,506,516.15788469970448
2015-10-27 20:19:57.457147,507,516.1481325295847
2015-10-27 20:19:57.457209,506,516.13838035946492
2015-10-27 20:19:57.473054,502,516.12862818934514
2015-10-27 20:19:57.473201,502,516.11887601922524
2015-10-27 20:19:57.473268,505,516.10912384910546
2015-10-27 20:19:57.488980,510,516.10843034556422
2015-10-27 20:19:57.489069,514,516.09179293134639
2015-10-27 20:19:57.489134,518,516.06394832372632
2015-10-27 20:19:57.504855,515,516.03739781133186
2015-10-27 20:19:57.504944,514,516.01084729893739
2015-10-27 20:19:57.505009,519,515.98593763353904
2015-10-27 20:19:57.520936,530,515.95430365209938
2015-10-27 20:19:57.521107,536,515.92266967065984
2015-10-27 20:19:57.521265,536,515.89103568922019
2015-10-27 20:19:57.536779,538,515.85940170778053
2015-10-27 20:19:57.536867,543,515.82776772634088
2015-10-27 20:19:57.536932,548,515.79613374490134
2015-10-27 20:19:57.552788,554,515.76449976346169
2015-10-27 20:19:57.552878,559,515.73545397247312
2015-10-27 20:19:57.552944,565,515.70640818148456
2015-10-27 20:19:57.568871,576,515.677362390496
2015-10-27 20:19:57.568962,585,515.64831659950744
2015-10-27 20:19:57.569027,590,515.61927080851876
2015-10-27 20:19:57.584947,595,515.5902250175302
2015-10-27 20:19:57.585243,587,515.56117922654153
2015-10-27 20:19:57.585363,586,515.53213343555308
2015-10-27 20:19:57.600887,587,515.50308764456452
2015-10-27 20:19:57.600977,582,515.47404185357595
2015-10-27 20:19:57.601042,581,515.44499606258728
2015-10-27 20:19:57.616873,579,515.41595027159872
2015-10-27 20:19:57.616964,568,515.38690448061016
2015-10-27 20:19:57.617029,552,515.35785868962148
2015-10-27 20:19:57.632835,546,515.32881289863292
2015-10-27 20:19:57.632927,533,515.29976710764436
2015-10-27 20:19:57.632992,512,515.27072131665568
2015-10-27 20:19:57.648822,492,515.24167552566712
2015-10-27 20:19:57.648926,476,515.21262973467844
2015-10-27 20:19:57.648992,465,515.18876032459184
2015-10-27 20:19:57.664668,455,515.17783186676036
2015-10-27 20:19:57.664762,444,515.18113845640937
2015-10-27 20:19:57.664828,437,515.17936157701331
2015-10-27 20:19:57.680807,434,515.17603676247802
2015-10-27 20:19:57.680921,429,515.14701586714637
2015-10-27 20:19:57.680987,423,515.06366786800015
2015-10-27 20:19:57.696890,415,514.90383221814898
2015-10-27 20:19:57.697011,416,514.7360710688879
2015-10-27 20:19:57.697078,420,514.57219220530339
2015-10-27 20:19:57.712810,419,514.40960743694427
2015-10-27 20:19:57.712975,416,514.25090495426184
2015-10-27 20:19:57.713048,421,514.0922024715793
2015-10-27 20:19:57.713112,422,513.93349998889676
2015-10-27 20:19:57.728667,421,513.77479750621421
2015-10-27 20:19:57.728758,423,513.61609502353178
2015-10-27 20:19:57.728824,426,513.45739254084924
2015-10-27 20:19:57.744641,429,513.2986900581667
2015-10-27 20:19:57.744692,435,513.13998757548416
2015-10-27 20:19:57.744729,440,512.98128509280173
2015-10-27 20:19:57.760654,438,512.82258261011918
2015-10-27 20:19:57.760739,434,512.66388012743664
2015-10-27 20:19:57.760836,433,512.50517764475421
2015-10-27 20:19:57.776700,435,512.34647516207167
2015-10-27 20:19:57.776792,437,512.18777267938913
2015-10-27 20:19:57.776838,436,512.0290701967067
2015-10-27 20:19:57.792629,438,511.87036771402416
2015-10-27 20:19:57.792691,441,511.71166523134161
2015-10-27 20:19:57.792735,441,511.55296274865918
2015-10-27 20:19:57.808729,437,511.39426026597664
2015-10-27 20:19:57.808846,438,511.2355577832941
2015-10-27 20:19:57.808915,443,511.07685530061167
2015-10-27 20:19:57.824599,447,510.91815281792913
2015-10-27 20:19:57.824677,449,510.7594503352467
2015-10-27 20:19:57.824733,452,510.60074785256415
2015-10-27 20:19:57.840605,457,510.44204536988173
2015-10-27 20:19:57.840687,458,510.28334288719918
2015-10-27 20:19:57.840727,459,510.12464040451664
2015-10-27 20:19:57.856600,464,509.50973624045503
2015-10-27 20:19:57.856654,465,508.60893661418322
2015-10-27 20:19:57.856691,463,507.7081369879113
2015-10-27 20:19:57.872709,469,506.8073373616395
2015-10-27 20:19:57.872777,478,505.90653773536769
2015-10-27 20:19:57.872822,484,505.15640395562559
2015-10-27 20:19:57.888601,481,504.89128870399463
2015-10-27 20:19:57.888656,476,504.76163201230088
2015-10-27 20:19:57.888694,473,504.63197532060701
2015-10-27 20:19:57.904769,469,504.50231862891326
2015-10-27 20:19:57.904870,469,504.37266193721939
2015-10-27 20:19:57.904925,479,504.24300524552552
2015-10-27 20:19:57.920750,481,504.11334855383166
2015-10-27 20:19:57.920865,479,503.9836918621379
2015-10-27 20:19:57.920949,477,503.85403517044392
2015-10-27 20:19:57.936630,477,503.72437847875017
2015-10-27 20:19:57.936872,477,503.5947217870563
2015-10-27 20:19:57.936966,469,503.46506509536255
2015-10-27 20:19:57.952606,464,503.33540840366868
2015-10-27 20:19:57.952703,471,503.20575171197481
2015-10-27 20:19:57.952772,474,503.07609502028095
2015-10-27 20:19:57.952834,472,502.94643832858708
2015-10-27 20:19:57.968689,467,502.81678163689321
2015-10-27 20:19:57.968786,461,502.68712494519946
2015-10-27 20:19:57.968856,464,502.55746825350548
2015-10-27 20:19:57.984625,466,502.42781156181172
2015-10-27 20:19:57.984716,467,502.29815487011786
2015-10-27 20:19:57.984786,467,502.16849817842399
2015-10-27 20:19:58.000658,465,502.03884148673012
2015-10-27 20:19:58.000805,464,501.90918479503625
2015-10-27 20:19:58.000880,462,501.77952810334239
2015-10-27 20:19:58.016835,465,501.64987141164852
2015-10-27 20:19:58.016971,466,501.52021471995465
2015-10-27 20:19:58.017054,468,501.3905580282609
2015-10-27 20:19:58.032660,466,501.26090133656703
2015-10-27 20:19:58.032750,464,501.13124464487305
2015-10-27 20:19:58.032815,468,501.0015879531793
2015-10-27 20:19:58.048674,466,500.87193126148543
2015-10-27 20:19:58.048763,468,500.74227456979145
2015-10-27 20:19:58.048829,472,500.61261787809769
2015-10-27 20:19:58.064632,472,500.48296118640383
2015-10-27 20:19:58.064723,470,500.35330449470985
2015-10-27 20:19:58.064788,469,500.22364780301609
2015-10-27 20:19:58.080777,478,500.09399111132223
2015-10-27 20:19:58.080887,480,499.96433441962836
2015-10-27 20:19:58.080955,473,499.83467772793449
2015-10-27 20:19:58.096656,471,499.70502103624062
2015-10-27 20:19:58.096747,469,499.57536434454687
2015-10-27 20:19:58.096830,473,499.445707652853
2015-10-27 20:19:58.112856,478,499.31605096115925
2015-10-27 20:19:58.112986,480,499.18639426946527
2015-10-27 20:19:58.113051,480,499.05673757777151
2015-10-27 20:19:58.128879,476,498.92708088607765
2015-10-27 20:19:58.128973,474,498.79742419438389
2015-10-27 20:19:58.129039,476,498.66776750269003
2015-10-27 20:19:58.144760,483,498.53811081099616
2015-10-27 20:19:58.144852,486,498.40845411930229
2015-10-27 20:19:58.144917,489,498.27879742760854
2015-10-27 20:19:58.160597,490,498.14914073591467
2015-10-27 20:19:58.160703,492,498.0194840442208
2015-10-27 20:19:58.160769,492,497.88982735252694
2015-10-27 20:19:58.176734,492,497.76017066083307
2015-10-27 20:19:58.176840,498,497.62533758823724
2015-10-27 20:19:58.176906,503,497.4775635633863
2015-10-27 20:19:58.192754,503,497.31555449105474
2015-10-27 20:19:58.192863,503,497.15862888776826
2015-10-27 20:19:58.192929,504,497.00325121962101
2015-10-27 20:19:58.192991,511,496.87356963227035
2015-10-27 20:19:58.208778,516,496.7982151487339
2015-10-27 20:19:58.208867,520,496.79934831590265
2015-10-27 20:19:58.208932,520,496.8084069824813
2015-10-27 20:19:58.224760,515,496.81358336338326
2015-10-27 20:19:58.224850,515,496.81746564905984
2015-10-27 20:19:58.224914,518,496.81746564905984
2015-10-27 20:19:58.240629,519,496.81746564905984
2015-10-27 20:19:58.240692,518,496.81746564905984
2015-10-27 20:19:58.240736,515,496.81746564905984
2015-10-27 20:19:58.256542,514,496.81746564905984
2015-10-27 20:19:58.256606,509,496.81746564905984
2015-10-27 20:19:58.256652,500,496.81746564905984
2015-10-27 20:19:58.272558,503,496.81746564905984
2015-10-27 20:19:58.272630,506,496.81746564905984
2015-10-27 20:19:58.272683,505,496.81746564905984
2015-10-27 20:19:58.288613,502,496.81746564905984
2015-10-27 20:19:58.288725,500,496.81746564905984
2015-10-27 20:19:58.288775,499,496.81746564905984
2015-10-27 20:19:58.304612,501,496.81746564905984
2015-10-27 20:19:58.304697,502,496.81746564905984
2015-10-27 20:19:58.304745,504,496.81746564905984
2015-10-27 20:19:58.320635,505,496.81746564905984
2015-10-27 20:19:58.320741,505,496.81746564905984
2015-10-27 20:19:58.320808,506,496.81746564905984
2015-10-27 20:19:58.336605,506,496.81746564905984
2015-10-27 20:19:58.336777,509,496.81746564905984
2015-10-27 20:19:58.336915,504,496.81746564905984
2015-10-27 20:19:58.352726,502,496.81746564905984
2015-10-27 20:19:58.352901,508,496.81746564905984
2015-10-27 20:19:58.353024,512,496.81746564905984
2015-10-27 20:19:58.368723,506,496.81746564905984
2015-10-27 20:19:58.368834,493,496.81746564905984
2015-10-27 20:19:58.368888,500,496.81746564905984
2015-10-27 20:19:58.384584,534,496.81746564905984
2015-10-27 20:19:58.384686,585,496.81746564905984
2015-10-27 20:19:58.384751,679,496.81746564905984
2015-10-27 20:19:58.400465,770,496.81746564905984
2015-10-27 20:19:58.400554,845,496.81746564905984
2015-10-27 20:19:58.400607,898,496.94268925470692
2015-10-27 20:19:58.416472,853,497.06791286035389
2015-10-27 20:19:58.416581,701,497.19313646600096
2015-10-27 20:19:58.416659,499,497.31836007164804
2015-10-27 20:19:58.432445,406,497.39563413775113
2015-10-27 20:19:58.432513,436,497.47290820385422
2015-10-27 20:19:58.432550,488,497.55018226995742
2015-10-27 20:19:58.432585,514,497.6274563360605
2015-10-27 20:19:58.449763,517,497.70473040216359
2015-10-27 20:19:58.449839,518,497.78200446826679
2015-10-27 20:19:58.449915,519,497.85927853436988
2015-10-27 20:19:58.465319,519,497.93655260047296
2015-10-27 20:19:58.465397,518,498.01382666657616
2015-10-27 20:19:58.465460,528,498.09110073267925
2015-10-27 20:19:58.480764,532,498.16837479878245
2015-10-27 20:19:58.480857,524,498.24564886488554
2015-10-27 20:19:58.480961,528,498.32292293098863
2015-10-27 20:19:58.497780,538,498.40019699709183
2015-10-27 20:19:58.497869,538,498.47747106319491
2015-10-27 20:19:58.497942,537,498.554745129298
2015-10-27 20:19:58.512484,540,498.6320191954012
2015-10-27 20:19:58.512570,545,498.70929326150429
2015-10-27 20:19:58.512639,546,498.78656732760737
2015-10-27 20:19:58.532850,547,498.86384139371057
2015-10-27 20:19:58.532933,548,498.94111545981366
2015-10-27 20:19:58.533000,549,499.01838952591675
2015-10-27 20:19:58.544545,549,499.09566359201995
2015-10-27 20:19:58.544609,548,499.17293765812303
2015-10-27 20:19:58.544650,548,499.25021172422623
2015-10-27 20:19:58.560685,552,499.32748579032932
2015-10-27 20:19:58.560864,552,499.40475985643241
2015-10-27 20:19:58.560934,561,499.48203392253561
2015-10-27 20:19:58.576728,570,499.55930798863869
2015-10-27 20:19:58.576992,574,499.63658205474178
2015-10-27 20:19:58.577073,576,499.71385612084498
2015-10-27 20:19:58.592632,577,499.79113018694807
2015-10-27 20:19:58.592724,581,499.86840425305115
2015-10-27 20:19:58.592790,586,499.94567831915435
2015-10-27 20:19:58.608629,591,500.02295238525744
2015-10-27 20:19:58.608723,597,500.10022645136064
2015-10-27 20:19:58.608791,603,500.17750051746373
2015-10-27 20:19:58.624544,606,500.25477458356681
2015-10-27 20:19:58.624643,616,500.33204864967001
2015-10-27 20:19:58.624709,624,500.40932271577299
2015-10-27 20:19:58.640766,634,500.48659678187619
2015-10-27 20:19:58.640869,641,500.56387084797927
2015-10-27 20:19:58.640934,642,500.64114491408236
2015-10-27 20:19:58.656624,646,500.71841898018556
2015-10-27 20:19:58.656732,645,500.79569304628876
2015-10-27 20:19:58.656799,638,500.87296711239196
2015-10-27 20:19:58.672641,634,500.95024117849505
2015-10-27 20:19:58.672749,631,501.02751524459825
2015-10-27 20:19:58.672816,619,501.10478931070134
2015-10-27 20:19:58.672878,603,501.18206337680454
2015-10-27 20:19:58.688517,590,501.25933744290774
2015-10-27 20:19:58.688609,580,501.33661150901094
2015-10-27 20:19:58.688673,567,501.41388557511402
2015-10-27 20:19:58.704625,549,501.49115964121722
2015-10-27 20:19:58.704714,529,501.56843370732042
2015-10-27 20:19:58.704779,515,501.64570777342362
2015-10-27 20:19:58.721397,506,501.72298183952671
2015-10-27 20:19:58.721549,492,501.80025590562991
2015-10-27 20:19:58.721743,479,501.877529971733
2015-10-27 20:19:58.736716,471,501.95928691519714
2015-10-27 20:19:58.736805,466,502.04647407947687
2015-10-27 20:19:58.736869,458,502.1323671485311
2015-10-27 20:19:58.752448,456,502.22274309494617
2015-10-27 20:19:58.752537,456,502.35365076132268
2015-10-27 20:19:58.752601,452,502.48550577115407
2015-10-27 20:19:58.768484,447,502.61571993398934
2015-10-27 20:19:58.768573,444,502.76550645326415
2015-10-27 20:19:58.768638,441,502.9419363967902
2015-10-27 20:19:58.784440,438,503.15113348892453
2015-10-27 20:19:58.784529,444,503.39473857666326
2015-10-27 20:19:58.784593,445,503.6383436644021
2015-10-27 20:19:58.800570,442,503.88194875214083
2015-10-27 20:19:58.800660,442,504.12555383987967
2015-10-27 20:19:58.800724,446,504.37010627107327
2015-10-27 20:19:58.816446,450,504.63363046702216
2015-10-27 20:19:58.816536,455,504.90422573078285
2015-10-27 20:19:58.816602,453,505.17482099454367
2015-10-27 20:19:58.832583,450,505.44636360175923
2015-10-27 20:19:58.832675,454,505.7179062089748
2015-10-27 20:19:58.832741,452,505.98944881619047
2015-10-27 20:19:58.848506,451,506.26099142340604
2015-10-27 20:19:58.848599,451,506.53477546930208
2015-10-27 20:19:58.848664,451,506.80467722952176
2015-10-27 20:19:58.864583,449,507.07457898974121
2015-10-27 20:19:58.864675,447,507.34448074996078
2015-10-27 20:19:58.864740,445,507.61438251018035
2015-10-27 20:19:58.880593,443,507.8842842703998
2015-10-27 20:19:58.880686,440,508.15548012584497
2015-10-27 20:19:58.880751,442,508.42667598128992
2015-10-27 20:19:58.896373,447,508.69787183673498
2015-10-27 20:19:58.896585,455,508.96906769218015
2015-10-27 20:19:58.896783,457,509.2402635476252
2015-10-27 20:19:58.912375,456,509.51145940307015
2015-10-27 20:19:58.912549,451,509.78265525851532
2015-10-27 20:19:58.912684,451,510.05385111396038
2015-10-27 20:19:58.928481,453,510.32504696940543
2015-10-27 20:19:58.928588,450,510.47101921920341
2015-10-27 20:19:58.928654,448,510.6169914690015
2015-10-27 20:19:58.928716,450,510.76296371879948
2015-10-27 20:19:58.944439,447,510.90893596859758
2015-10-27 20:19:58.944528,451,511.10285775793955
2015-10-27 20:19:58.944593,451,511.2967795472814
2015-10-27 20:19:58.960535,450,511.49070133662337
2015-10-27 20:19:58.960624,446,511.68462312596523
2015-10-27 20:19:58.960693,446,511.87854491530709
2015-10-27 20:19:58.976408,445,512.07246670464895
2015-10-27 20:19:58.976499,444,512.26638849399092
2015-10-27 20:19:58.976564,446,512.46031028333277
2015-10-27 20:19:58.992388,447,512.65423207267463
2015-10-27 20:19:58.992478,447,512.84815386201649
2015-10-27 20:19:58.992543,447,513.04207565135835
2015-10-27 20:19:59.008739,445,513.2359974407002
2015-10-27 20:19:59.009371,442,513.42991923004206
2015-10-27 20:19:59.009466,437,513.62418777115454
2015-10-27 20:19:59.024292,433,513.79241347969992
2015-10-27 20:19:59.024346,435,513.95969184479043
2015-10-27 20:19:59.024382,438,514.12697020988094
2015-10-27 20:19:59.040346,443,514.29424857497133
2015-10-27 20:19:59.040452,441,514.46152694006184
2015-10-27 20:19:59.040529,440,514.62880530515247
2015-10-27 20:19:59.056298,438,514.79608367024287
2015-10-27 20:19:59.056363,436,514.96336203533338
2015-10-27 20:19:59.056409,431,515.11072129221384
2015-10-27 20:19:59.072366,432,515.25842730086492
2015-10-27 20:19:59.072447,435,515.40613330951601
2015-10-27 20:19:59.072497,434,515.55383931816709
2015-10-27 20:19:59.088305,429,515.68386765728849
2015-10-27 20:19:59.088360,423,515.76051623605019
2015-10-27 20:19:59.088396,420,515.80120888406839
2015-10-27 20:19:59.104317,426,515.84578381776305
2015-10-27 20:19:59.104397,435,515.89035875145782
2015-10-27 20:19:59.104450,441,515.93493368515249
2015-10-27 20:19:59.120322,443,515.97950861884715
2015-10-27 20:19:59.120380,444,516.02408355254181
2015-10-27 20:19:59.120416,441,516.06865848623659
2015-10-27 20:19:59.136260,439,516.11323341993125
2015-10-27 20:19:59.136401,440,516.15780835362591
2015-10-27 20:19:59.136487,443,516.20238328732057
2015-10-27 20:19:59.152319,441,516.24695822101523
2015-10-27 20:19:59.152439,443,516.29153315471001
2015-10-27 20:19:59.152654,448,516.33610808840467
2015-10-27 20:19:59.168259,452,516.38068302209933
2015-10-27 20:19:59.168337,450,516.425257955794
2015-10-27 20:19:59.168376,454,516.46983288948866
2015-10-27 20:19:59.168411,461,516.51440782318332
2015-10-27 20:19:59.184650,464,516.55898275687809
2015-10-27 20:19:59.184764,462,516.60355769057276
2015-10-27 20:19:59.184860,461,516.64813262426742
2015-10-27 20:19:59.200278,464,516.69270755796219
2015-10-27 20:19:59.200356,464,516.73728249165686
2015-10-27 20:19:59.200401,462,516.78185742535152
2015-10-27 20:19:59.216312,462,516.82643235904618
2015-10-27 20:19:59.216374,468,516.87100729274073
2015-10-27 20:19:59.216419,474,516.91558222643539
2015-10-27 20:19:59.232464,476,516.96015716013017
2015-10-27 20:19:59.232553,478,517.00473209382483
2015-10-27 20:19:59.232617,479,517.04930702751949
2015-10-27 20:19:59.248206,474,517.09388196121415
2015-10-27 20:19:59.248260,480,517.13845689490893
2015-10-27 20:19:59.248296,487,517.17854895124276
2015-10-27 20:19:59.264312,484,517.21321078676101
2015-10-27 20:19:59.264401,480,517.24916671750464
2015-10-27 20:19:59.264467,487,517.28063977088743
2015-10-27 20:19:59.280269,495,517.27158110430889
2015-10-27 20:19:59.280370,497,517.26157509427537
2015-10-27 20:19:59.280448,493,517.25320993123808
2015-10-27 20:19:59.296625,496,517.22527241176124
2015-10-27 20:19:59.296904,496,517.17069146803306
2015-10-27 20:19:59.297054,493,517.08334337569659
2015-10-27 20:19:59.312262,487,516.96158728775572
2015-10-27 20:19:59.312354,483,516.83983119981485
2015-10-27 20:19:59.312420,483,516.71807511187399
2015-10-27 20:19:59.328383,480,516.59631902393323
2015-10-27 20:19:59.328537,475,516.47361559253739
2015-10-27 20:19:59.328667,488,516.33194039638647
2015-10-27 20:19:59.344236,493,516.18319413242364
2015-10-27 20:19:59.344355,490,516.0344478684608
2015-10-27 20:19:59.344408,489,515.8847542610431
2015-10-27 20:19:59.360385,489,515.7350606536254
2015-10-27 20:19:59.360477,490,515.58536704620758
2015-10-27 20:19:59.360602,489,515.43567343878988
2015-10-27 20:19:59.376177,493,515.2837383926917
2015-10-27 20:19:59.376270,498,515.13568563227011
2015-10-27 20:19:59.376317,499,514.98763287184852
2015-10-27 20:19:59.392338,500,514.83958011142693
2015-10-27 20:19:59.392445,500,514.69152735100533
2015-10-27 20:19:59.392511,501,514.54347459058363
2015-10-27 20:19:59.408174,501,514.39412773493655
2015-10-27 20:19:59.408282,490,514.24478087928935
2015-10-27 20:19:59.408348,476,514.09543402364227
2015-10-27 20:19:59.408410,478,513.94608716799507
2015-10-27 20:19:59.424387,503,513.79674031234799
2015-10-27 20:19:59.424476,564,513.6473934567008
2015-10-27 20:19:59.424553,666,513.49804660105372
2015-10-27 20:19:59.440241,752,513.34869974540652
2015-10-27 20:19:59.440331,818,513.19935288975944
2015-10-27 20:19:59.440396,850,513.05000603411224
2015-10-27 20:19:59.456240,776,512.90065917846505
2015-10-27 20:19:59.456317,600,512.75131232281797
2015-10-27 20:19:59.456365,412,512.53220213250711
2015-10-27 20:19:59.472279,359,512.08609937301821
2015-10-27 20:19:59.472368,413,511.62818882844283
2015-10-27 20:19:59.472433,464,511.17027828386756
2015-10-27 20:19:59.488263,481,510.71236773929229
2015-10-27 20:19:59.488421,484,510.25445719471713
2015-10-27 20:19:59.488548,484,509.79654665014186
2015-10-27 20:19:59.504381,482,509.33863610556659
2015-10-27 20:19:59.504486,475,508.88072556099132
2015-10-27 20:19:59.504560,472,508.42281501641605
2015-10-27 20:19:59.520379,470,507.96490447184078
2015-10-27 20:19:59.520471,470,507.50699392726551
2015-10-27 20:19:59.520537,468,507.04908338269024
2015-10-27 20:19:59.536222,469,506.59117283811497
2015-10-27 20:19:59.536369,471,506.13291554176908
2015-10-27 20:19:59.536461,469,505.70070107799029
2015-10-27 20:19:59.552262,467,505.26943395766637
2015-10-27 20:19:59.552355,469,504.83816683734244
2015-10-27 20:19:59.552420,471,504.40689971701852
2015-10-27 20:19:59.568443,473,503.9756325966946
2015-10-27 20:19:59.568541,470,503.54436547637079
2015-10-27 20:19:59.568609,467,503.11309835604686
2015-10-27 20:19:59.584279,464,502.68183123572294
2015-10-27 20:19:59.584372,465,502.27048322360906
2015-10-27 20:19:59.584437,468,501.85878845972456
2015-10-27 20:19:59.600155,468,501.44709369584018
2015-10-27 20:19:59.600249,472,501.03539893195568
2015-10-27 20:19:59.600316,472,500.64138183760099
2015-10-27 20:19:59.616083,469,500.30074450360576
2015-10-27 20:19:59.616149,471,499.99606310035415
2015-10-27 20:19:59.616187,475,499.68749941142607
2015-10-27 20:19:59.632081,477,499.37893572249789
2015-10-27 20:19:59.632146,478,499.07037203356981
2015-10-27 20:19:59.632183,486,498.76180834464174
2015-10-27 20:19:59.648098,491,498.45324465571355
2015-10-27 20:19:59.648186,493,498.14468096678547
2015-10-27 20:19:59.648239,503,497.8361172778574
2015-10-27 20:19:59.648289,509,497.52755358892921
2015-10-27 20:19:59.664173,509,497.21898990000113
2015-10-27 20:19:59.664261,514,496.91042621107295
2015-10-27 20:19:59.664326,523,496.60186252214487
2015-10-27 20:19:59.680149,529,496.2932988332168
2015-10-27 20:19:59.680214,528,495.98473514428861
2015-10-27 20:19:59.680259,526,495.67617145536053
2015-10-27 20:19:59.696072,526,495.36760776643246
2015-10-27 20:19:59.696124,520,495.05904407750438
2015-10-27 20:19:59.696162,521,494.75048038857631
2015-10-27 20:19:59.712156,521,494.44191669964812
2015-10-27 20:19:59.712244,515,494.13335301071993
2015-10-27 20:19:59.712309,507,493.82478932179174
2015-10-27 20:19:59.728075,493,493.51622563286355
2015-10-27 20:19:59.728149,479,493.20766194393548
2015-10-27 20:19:59.728193,467,492.89909825500729
2015-10-27 20:19:59.744112,450,492.59053456607921
2015-10-27 20:19:59.744167,439,492.28197087715102
2015-10-27 20:19:59.744203,430,491.97340718822284
2015-10-27 20:19:59.760096,412,491.67166072719283
2015-10-27 20:19:59.760177,393,491.21227026367819
2015-10-27 20:19:59.760217,379,490.59318018271233
2015-10-27 20:19:59.776089,373,489.91710679128118
2015-10-27 20:19:59.776170,366,489.18714595966287
2015-10-27 20:19:59.776227,364,488.43252930255994
2015-10-27 20:19:59.792086,359,487.6406626194879
2015-10-27 20:19:59.792200,352,486.80636952954467
2015-10-27 20:19:59.792305,346,485.89101299967865
2015-10-27 20:19:59.808254,343,484.89528653343109
2015-10-27 20:19:59.808344,337,483.84109683777876
2015-10-27 20:19:59.808409,340,482.76285190832618
2015-10-27 20:19:59.824326,346,481.6846069788736
2015-10-27 20:19:59.824419,347,480.60636204942102
2015-10-27 20:19:59.824485,348,479.52811711996833
2015-10-27 20:19:59.840273,354,478.44987219051575
2015-10-27 20:19:59.840366,359,477.37162726106328
2015-10-27 20:19:59.840431,356,476.29338233161059
2015-10-27 20:19:59.856402,362,475.21513740215801
2015-10-27 20:19:59.856495,373,474.13689247270554
2015-10-27 20:19:59.856560,370,473.05864754325285
2015-10-27 20:19:59.872315,376,471.98040261380027
2015-10-27 20:19:59.872516,381,470.9021576843478
2015-10-27 20:19:59.872632,385,469.8239127548951
2015-10-27 20:19:59.888283,387,468.74566782544264
2015-10-27 20:19:59.888392,390,467.66742289599006
2015-10-27 20:19:59.888458,391,466.58917796653736
2015-10-27 20:19:59.904164,397,465.5109330370849
2015-10-27 20:19:59.904272,397,464.43268810763232
2015-10-27 20:19:59.904338,397,463.35444317817962
2015-10-27 20:19:59.904401,406,462.27619824872716
2015-10-27 20:19:59.920376,411,461.19795331927457
2015-10-27 20:19:59.920465,413,460.11970838982188
2015-10-27 20:19:59.920531,416,459.04146346036941
2015-10-27 20:19:59.936511,424,457.96321853091683
2015-10-27 20:19:59.936601,426,456.88497360146414
2015-10-27 20:19:59.936666,427,455.80672867201167
2015-10-27 20:19:59.952388,428,454.72848374255909
2015-10-27 20:19:59.952478,431,453.65023881310651
2015-10-27 20:19:59.952542,436,452.57199388365393
2015-10-27 20:19:59.968163,436,451.49374895420146
2015-10-27 20:19:59.968252,437,450.41550402474877
2015-10-27 20:19:59.968317,437,449.3372590952963
2015-10-27 20:19:59.984284,437,448.25901416584372
2015-10-27 20:19:59.984373,434,447.25053257105492
2015-10-27 20:19:59.984496,436,446.46904354544404
2015-10-27 20:20:00.000217,439,445.69936230491965
2015-10-27 20:20:00.000312,443,444.92968106439525
2015-10-27 20:20:00.000377,447,444.15999982387086
2015-10-27 20:20:00.016126,455,443.39031858334658
2015-10-27 20:20:00.016217,460,442.62063734282219
2015-10-27 20:20:00.016283,462,441.85095610229769
2015-10-27 20:20:00.032239,464,441.0812748617733
2015-10-27 20:20:00.032379,472,440.3115936212489
2015-10-27 20:20:00.032475,472,439.54191238072451
2015-10-27 20:20:00.048370,473,438.77223114020012
2015-10-27 20:20:00.048521,484,438.00254989967561
2015-10-27 20:20:00.048592,490,437.23286865915134
2015-10-27 20:20:00.064224,492,436.46318741862683
2015-10-27 20:20:00.064319,492,435.69350617810244
2015-10-27 20:20:00.064411,494,434.92382493757805
2015-10-27 20:20:00.080381,497,434.15414369705366
2015-10-27 20:20:00.080506,500,433.38446245652921
2015-10-27 20:20:00.080573,500,432.61478121600487
2015-10-27 20:20:00.096296,500,431.84509997548042
2015-10-27 20:20:00.096389,497,431.07541873495603
2015-10-27 20:20:00.096455,498,430.30573749443158
2015-10-27 20:20:00.112426,506,429.53605625390725
2015-10-27 20:20:00.112590,511,428.7663750133828
2015-10-27 20:20:00.112707,511,427.99669377285841
2015-10-27 20:20:00.128234,511,427.22701253233396
2015-10-27 20:20:00.128406,511,426.45733129180957
2015-10-27 20:20:00.128502,513,425.68765005128517
2015-10-27 20:20:00.144326,515,424.91796881076073
2015-10-27 20:20:00.144438,514,424.14828757023628
2015-10-27 20:20:00.144503,515,423.37860632971183
2015-10-27 20:20:00.144566,509,422.60892508918749
2015-10-27 20:20:00.160156,511,421.83924384866305
2015-10-27 20:20:00.160246,512,421.0695626081386
2015-10-27 20:20:00.160311,512,420.29988136761415
2015-10-27 20:20:00.176152,511,419.5302001270897
2015-10-27 20:20:00.176243,511,418.76051888656525
2015-10-27 20:20:00.176309,518,417.99083764604092
2015-10-27 20:20:00.192091,522,417.22115640551647
2015-10-27 20:20:00.192181,525,416.45147516499202
2015-10-27 20:20:00.192246,524,415.68179392446763
2015-10-27 20:20:00.208088,516,414.91211268394318
2015-10-27 20:20:00.208177,512,414.14243144341879
2015-10-27 20:20:00.208242,515,413.37275020289434
2015-10-27 20:20:00.224124,521,412.60306896236995
2015-10-27 20:20:00.224215,524,411.8333877218455
2015-10-27 20:20:00.224279,528,411.06370648132105
2015-10-27 20:20:00.240221,532,410.2940252407966
2015-10-27 20:20:00.240310,528,409.52434400027227
2015-10-27 20:20:00.240375,521,408.75466275974782
2015-10-27 20:20:00.256047,524,407.98498151922337
2015-10-27 20:20:00.256140,524,407.21530027869892
2015-10-27 20:20:00.256205,521,406.44561903817447
2015-10-27 20:20:00.272281,524,405.67593779765002
2015-10-27 20:20:00.272377,525,404.90625655712563
2015-10-27 20:20:00.272443,526,404.12975808870306
2015-10-27 20:20:00.288249,524,403.51090362276511
2015-10-27 20:20:00.288344,520,403.05174877427834
2015-10-27 20:20:00.288410,518,402.64957723625696
2015-10-27 20:20:00.304083,514,402.30129313842264
2015-10-27 20:20:00.304178,506,401.97766486607298
2015-10-27 20:20:00.304245,505,401.69128661969239
2015-10-27 20:20:00.320030,505,401.44733478018304
2015-10-27 20:20:00.320124,500,401.28444638059642
2015-10-27 20:20:00.320189,493,401.2019279173914
2015-10-27 20:20:00.336158,492,401.17787268359103
2015-10-27 20:20:00.336252,499,401.17787268359103
2015-10-27 20:20:00.336318,499,401.17787268359103
2015-10-27 20:20:00.352207,496,401.17787268359103
2015-10-27 20:20:00.352316,498,401.17787268359103
2015-10-27 20:20:00.352382,507,401.17787268359103
2015-10-27 20:20:00.368164,511,401.17787268359103
2015-10-27 20:20:00.368273,510,401.17787268359103
2015-10-27 20:20:00.368340,511,401.17787268359103
2015-10-27 20:20:00.383973,510,401.17787268359103
2015-10-27 20:20:00.384083,512,401.17787268359103
2015-10-27 20:20:00.384150,519,401.17787268359103
2015-10-27 20:20:00.384213,526,401.17787268359103
2015-10-27 20:20:00.400011,523,401.17787268359103
2015-10-27 20:20:00.400102,510,401.17787268359103
2015-10-27 20:20:00.400168,502,401.17787268359103
2015-10-27 20:20:00.416124,519,401.17787268359103
2015-10-27 20:20:00.416215,560,401.17787268359103
2015-10-27 20:20:00.416280,642,401.17787268359103
2015-10-27 20:20:00.432026,735,401.17787268359103
2015-10-27 20:20:00.432114,815,401.17787268359103
2015-10-27 20:20:00.432179,879,401.17787268359103
2015-10-27 20:20:00.447955,868,401.17787268359103
2015-10-27 20:20:00.448044,747,401.17787268359103
2015-10-27 20:20:00.448109,548,401.17787268359103
2015-10-27 20:20:00.464079,417,401.17787268359103
2015-10-27 20:20:00.464172,430,401.17787268359103
2015-10-27 20:20:00.464236,492,401.17787268359103
2015-10-27 20:20:00.480247,531,401.17787268359103
2015-10-27 20:20:00.480338,542,401.17787268359103
2015-10-27 20:20:00.480403,536,401.17787268359103
2015-10-27 20:20:00.496125,532,401.17787268359103
2015-10-27 20:20:00.496216,540,401.17787268359103
2015-10-27 20:20:00.496280,547,401.17787268359103
2015-10-27 20:20:00.511987,550,401.17787268359103
2015-10-27 20:20:00.512137,551,401.17787268359103
2015-10-27 20:20:00.512267,553,401.17787268359103
2015-10-27 20:20:00.528106,555,401.17787268359103
2015-10-27 20:20:00.528253,558,401.17787268359103
2015-10-27 20:20:00.528380,555,401.17787268359103
2015-10-27 20:20:00.543947,558,401.17787268359103
2015-10-27 20:20:00.544117,556,401.17787268359103
2015-10-27 20:20:00.544196,555,401.17787268359103
2015-10-27 20:20:00.560172,556,401.17787268359103
2015-10-27 20:20:00.560269,556,401.17787268359103
2015-10-27 20:20:00.560334,553,401.17787268359103
2015-10-27 20:20:00.576088,553,401.17787268359103
2015-10-27 20:20:00.576186,561,401.17787268359103
2015-10-27 20:20:00.576252,563,401.17787268359103
2015-10-27 20:20:00.591981,561,401.17787268359103
2015-10-27 20:20:00.592115,562,401.17787268359103
2015-10-27 20:20:00.592226,565,401.17787268359103
2015-10-27 20:20:00.608002,569,401.17787268359103
2015-10-27 20:20:00.608157,572,401.17787268359103
2015-10-27 20:20:00.608225,573,401.17787268359103
2015-10-27 20:20:00.624124,578,401.17787268359103
2015-10-27 20:20:00.624332,582,401.17787268359103
2015-10-27 20:20:00.624402,587,401.17787268359103
2015-10-27 20:20:00.624465,598,401.17787268359103
2015-10-27 20:20:00.640113,604,401.17787268359103
2015-10-27 20:20:00.640204,608,401.17787268359103
2015-10-27 20:20:00.640268,613,401.17787268359103
2015-10-27 20:20:00.656149,617,401.17787268359103
2015-10-27 20:20:00.656240,625,401.17787268359103
2015-10-27 20:20:00.656305,635,401.17787268359103
2015-10-27 20:20:00.672199,644,401.17787268359103
2015-10-27 20:20:00.672289,650,401.17787268359103
2015-10-27 20:20:00.672355,652,401.17787268359103
2015-10-27 20:20:00.688112,651,401.17787268359103
2015-10-27 20:20:00.688206,652,401.17787268359103
2015-10-27 20:20:00.688271,655,401.17787268359103
2015-10-27 20:20:00.704260,652,401.17787268359103
2015-10-27 20:20:00.704359,645,401.17787268359103
2015-10-27 20:20:00.704424,643,401.17787268359103
2015-10-27 20:20:00.720172,644,401.17787268359103
2015-10-27 20:20:00.720310,635,401.17787268359103
2015-10-27 20:20:00.720430,617,401.17787268359103
2015-10-27 20:20:00.736248,596,401.17787268359103
2015-10-27 20:20:00.736344,582,401.17787268359103
2015-10-27 20:20:00.736391,573,401.17787268359103
2015-10-27 20:20:00.751799,556,401.17787268359103
2015-10-27 20:20:00.751852,541,401.17787268359103
2015-10-27 20:20:00.751888,528,401.17787268359103
2015-10-27 20:20:00.767800,513,401.17787268359103
2015-10-27 20:20:00.767863,496,401.17787268359103
2015-10-27 20:20:00.767907,493,401.17787268359103
2015-10-27 20:20:00.783829,495,401.17787268359103
2015-10-27 20:20:00.783882,491,401.17787268359103
2015-10-27 20:20:00.783918,479,401.17787268359103
2015-10-27 20:20:00.799800,471,401.17787268359103
2015-10-27 20:20:00.799915,469,401.17787268359103
2015-10-27 20:20:00.800011,466,401.17787268359103
2015-10-27 20:20:00.816006,469,401.17787268359103
2015-10-27 20:20:00.816097,476,401.17787268359103
2015-10-27 20:20:00.816166,476,401.17787268359103
2015-10-27 20:20:00.831951,472,401.17787268359103
2015-10-27 20:20:00.832042,470,401.17787268359103
2015-10-27 20:20:00.832107,473,401.17787268359103
2015-10-27 20:20:00.847909,480,401.17787268359103
2015-10-27 20:20:00.848073,483,401.18330290440684
2015-10-27 20:20:00.848233,483,401.25436033429605
2015-10-27 20:20:00.863837,483,401.35723756933879
2015-10-27 20:20:00.863957,484,401.48417003818179
2015-10-27 20:20:00.864024,479,401.66672370606472
2015-10-27 20:20:00.879957,486,401.89782750517588
2015-10-27 20:20:00.880065,493,402.16005760589923
2015-10-27 20:20:00.880133,494,402.46143241950153
2015-10-27 20:20:00.880196,496,402.8615483425562
2015-10-27 20:20:00.896003,499,403.32565062768833
2015-10-27 20:20:00.896093,504,403.82087921443258
2015-10-27 20:20:00.896158,503,404.39328895542303
2015-10-27 20:20:00.911969,501,405.02390808590457
2015-10-27 20:20:00.912059,504,405.69600627980242
2015-10-27 20:20:00.912125,503,406.3973360884026
2015-10-27 20:20:00.927849,498,407.13496857951702
2015-10-27 20:20:00.927940,497,407.92762167798713
2015-10-27 20:20:00.928004,499,408.73760569421631
2015-10-27 20:20:00.944077,495,409.56129218244178
2015-10-27 20:20:00.944168,491,410.46888414095463
2015-10-27 20:20:00.944233,489,411.46236916852172
2015-10-27 20:20:00.959839,492,412.50216288863652
2015-10-27 20:20:00.959955,492,413.56989412822821
2015-10-27 20:20:00.960030,485,414.67358129856353
2015-10-27 20:20:00.975789,484,415.84384302142723
2015-10-27 20:20:00.975841,486,417.03178241382062
2015-10-27 20:20:00.975878,485,418.22774021748074
2015-10-27 20:20:00.991748,484,419.43525196631361
2015-10-27 20:20:00.991842,486,420.65785319422508
2015-10-27 20:20:00.991917,488,421.88459054772687
2015-10-27 20:20:01.007707,486,423.11132790122861
2015-10-27 20:20:01.007759,483,424.33806525473034
2015-10-27 20:20:01.007797,481,425.56480260823201
2015-10-27 20:20:01.023965,485,426.79153996173375
2015-10-27 20:20:01.024056,487,428.01827731523542
2015-10-27 20:20:01.024121,488,429.2456152604214
2015-10-27 20:20:01.039813,490,430.47450114074667
2015-10-27 20:20:01.039910,490,431.70717639489158
2015-10-27 20:20:01.039976,485,432.93846464195406
2015-10-27 20:20:01.055792,478,434.18121392233229
2015-10-27 20:20:01.055946,479,435.43258220566156
2015-10-27 20:20:01.056071,484,436.68584517590079
2015-10-27 20:20:01.071915,486,437.94100283304988
2015-10-27 20:20:01.072008,487,439.19676108188321
2015-10-27 20:20:01.072073,488,440.45251933071643
2015-10-27 20:20:01.087734,492,441.70827757954976
2015-10-27 20:20:01.087843,489,442.96403582838298
2015-10-27 20:20:01.087910,484,444.21979407721642
2015-10-27 20:20:01.103798,483,445.47555232604964
2015-10-27 20:20:01.103906,485,446.73131057488297
2015-10-27 20:20:01.103972,487,447.9870688237163
2015-10-27 20:20:01.119899,487,449.24282707254952
2015-10-27 20:20:01.120006,490,450.49858532138285
2015-10-27 20:20:01.120072,487,451.75434357021618
2015-10-27 20:20:01.120135,483,453.01010181904951
2015-10-27 20:20:01.135808,485,454.26586006788273
2015-10-27 20:20:01.135897,485,455.52161831671606
2015-10-27 20:20:01.135962,479,456.77737656554939
2015-10-27 20:20:01.151890,479,458.03313481438261
2015-10-27 20:20:01.151980,485,459.28889306321594
2015-10-27 20:20:01.152044,482,460.54465131204938
2015-10-27 20:20:01.167986,482,461.8004095608826
2015-10-27 20:20:01.168075,485,463.05616780971593
2015-10-27 20:20:01.168140,487,464.31192605854926
2015-10-27 20:20:01.183808,487,465.56768430738248
2015-10-27 20:20:01.183963,488,466.82344255621592
2015-10-27 20:20:01.184136,487,468.07920080504914
2015-10-27 20:20:01.199895,486,469.33495905388247
2015-10-27 20:20:01.199985,483,470.5907173027158
2015-10-27 20:20:01.200050,484,471.84647555154913
2015-10-27 20:20:01.215868,486,473.10223380038235
2015-10-27 20:20:01.215958,488,474.35799204921568
2015-10-27 20:20:01.216024,487,475.61375029804901
2015-10-27 20:20:01.231863,483,476.86950854688234
2015-10-27 20:20:01.231952,484,478.12526679571556
2015-10-27 20:20:01.232017,489,479.38102504454889
2015-10-27 20:20:01.247855,490,480.63678329338222
2015-10-27 20:20:01.248001,489,481.89254154221555
2015-10-27 20:20:01.248068,490,483.14829979104888
2015-10-27 20:20:01.263852,490,484.40405803988222
2015-10-27 20:20:01.263942,489,485.65981628871555
2015-10-27 20:20:01.264005,491,486.91557453754888
2015-10-27 20:20:01.279872,496,488.1713327863821
2015-10-27 20:20:01.280037,499,489.42709103521554
2015-10-27 20:20:01.280139,498,490.68284928404887
2015-10-27 20:20:01.295760,496,491.9386075328822
2015-10-27 20:20:01.295853,495,493.19436578171542
2015-10-27 20:20:01.295918,494,494.45012403054875
2015-10-27 20:20:01.311903,500,495.70588227938219
2015-10-27 20:20:01.312020,503,496.96164052821553
2015-10-27 20:20:01.312129,507,498.21739877704886
2015-10-27 20:20:01.327737,507,499.47315702588207
2015-10-27 20:20:01.327845,507,500.7289152747154
2015-10-27 20:20:01.327911,505,501.98467352354874
2015-10-27 20:20:01.343668,506,503.24043177238207
2015-10-27 20:20:01.343778,502,504.4961900212154
2015-10-27 20:20:01.343843,500,505.75194827004873
2015-10-27 20:20:01.359682,498,507.00770651888217
2015-10-27 20:20:01.359813,499,508.26346476771539
2015-10-27 20:20:01.359881,493,509.51922301654872
2015-10-27 20:20:01.359955,482,510.76955104456636
2015-10-27 20:20:01.375796,480,511.95425186351042
2015-10-27 20:20:01.375886,478,513.10713287730107
2015-10-27 20:20:01.375951,471,514.23595865729135
2015-10-27 20:20:01.391962,467,515.31175142869279
2015-10-27 20:20:01.392051,470,516.33899406886599
2015-10-27 20:20:01.392116,475,517.33511040742701
2015-10-27 20:20:01.407978,472,518.29208203310918
2015-10-27 20:20:01.408067,472,519.15031254933888
2015-10-27 20:20:01.408132,479,519.94455670349123
2015-10-27 20:20:01.423902,482,520.70767455603129
2015-10-27 20:20:01.423994,478,521.39361125432515
2015-10-27 20:20:01.424059,479,522.02133856312798
2015-10-27 20:20:01.439912,483,522.60758680851461
2015-10-27 20:20:01.440002,485,523.1646034391988
2015-10-27 20:20:01.440067,484,523.68531738736874
2015-10-27 20:20:01.455957,486,524.15101072818311
2015-10-27 20:20:01.456046,476,524.5993731512383
2015-10-27 20:20:01.456111,466,525.03532719752263
2015-10-27 20:20:01.471878,483,525.38737577351958
2015-10-27 20:20:01.471971,521,525.6535312804624
2015-10-27 20:20:01.472036,603,525.87337809485746
2015-10-27 20:20:01.487686,708,526.06528738977556
2015-10-27 20:20:01.487830,794,526.22124075395004
2015-10-27 20:20:01.487940,865,526.3106195655962
2015-10-27 20:20:01.503968,875,526.38232070771267
2015-10-27 20:20:01.504059,768,526.80864039139112
2015-10-27 20:20:01.504124,576,527.39692602685841
2015-10-27 20:20:01.519846,425,527.77245414062838
2015-10-27 20:20:01.519971,408,527.72006484426663
2015-10-27 20:20:01.520036,456,527.64526116110062
2015-10-27 20:20:01.535785,496,527.57045747793472
2015-10-27 20:20:01.535877,513,527.49565379476883
2015-10-27 20:20:01.535944,514,527.42085011160282
2015-10-27 20:20:01.551876,510,527.34604642843692
2015-10-27 20:20:01.551973,509,527.27064215358678
2015-10-27 20:20:01.552039,507,527.19368994359729
2015-10-27 20:20:01.567757,506,527.11294835978811
2015-10-27 20:20:01.567921,508,527.03359378306141
2015-10-27 20:20:01.567997,514,526.94277817301895
2015-10-27 20:20:01.583632,514,526.84334356002535
2015-10-27 20:20:01.583744,512,526.742014260122
2015-10-27 20:20:01.583811,511,526.63879027330881
2015-10-27 20:20:01.599810,513,526.53496569481138
2015-10-27 20:20:01.599917,515,526.43114111631382
2015-10-27 20:20:01.599983,525,526.32731653781627
2015-10-27 20:20:01.600046,529,526.22349195931884
2015-10-27 20:20:01.615811,530,526.11966738082128
2015-10-27 20:20:01.615957,527,526.01584280232373
2015-10-27 20:20:01.616084,527,525.91201822382618
2015-10-27 20:20:01.631724,531,525.80819364532863
2015-10-27 20:20:01.631814,536,525.70436906683096
2015-10-27 20:20:01.631881,542,525.60054448833341
2015-10-27 20:20:01.647833,544,525.49671990983586
2015-10-27 20:20:01.647926,544,525.3928953313382
2015-10-27 20:20:01.647990,547,525.28907075284064
2015-10-27 20:20:01.663856,556,525.18524617434309
2015-10-27 20:20:01.663962,562,525.08142159584543
2015-10-27 20:20:01.664030,568,524.97759701734788
2015-10-27 20:20:01.679922,572,524.87377243885032
2015-10-27 20:20:01.680038,580,524.76994786035266
2015-10-27 20:20:01.680106,592,524.66612328185511
2015-10-27 20:20:01.695673,604,524.56229870335756
2015-10-27 20:20:01.695877,612,524.45847412486
2015-10-27 20:20:01.695998,614,524.35464954636245
2015-10-27 20:20:01.711923,624,524.25082496786501
2015-10-27 20:20:01.712070,643,524.14700038936746
2015-10-27 20:20:01.712151,658,524.04317581086991
2015-10-27 20:20:01.727842,664,523.93935123237247
2015-10-27 20:20:01.727933,667,523.83552665387492
2015-10-27 20:20:01.727998,677,523.73170207537737
2015-10-27 20:20:01.743768,684,523.62787749687982
2015-10-27 20:20:01.743858,680,523.52405291838227
2015-10-27 20:20:01.743923,681,523.42022833988483
2015-10-27 20:20:01.759645,684,523.31640376138716
2015-10-27 20:20:01.759735,685,523.21257918288973
2015-10-27 20:20:01.759799,680,523.10875460439206
2015-10-27 20:20:01.775794,672,523.00493002589462
2015-10-27 20:20:01.775887,667,522.90110544739707
2015-10-27 20:20:01.775952,662,522.79728086889952
2015-10-27 20:20:01.791779,649,522.69345629040208
2015-10-27 20:20:01.791876,629,522.58963171190453
2015-10-27 20:20:01.791943,621,522.48580713340698
2015-10-27 20:20:01.807633,612,522.38198255490954
2015-10-27 20:20:01.807725,600,522.27815797641199
2015-10-27 20:20:01.807792,589,522.17433339791444
2015-10-27 20:20:01.823517,578,522.070508819417
2015-10-27 20:20:01.823646,566,521.96668424091945
2015-10-27 20:20:01.823714,553,521.8628596624219
2015-10-27 20:20:01.839609,553,521.75903508392435
2015-10-27 20:20:01.839717,553,521.65521050542691
2015-10-27 20:20:01.839783,545,521.55138592692936
2015-10-27 20:20:01.855668,541,521.4475613484318
2015-10-27 20:20:01.855814,539,521.34373676993425
2015-10-27 20:20:01.855881,538,521.2399121914367
2015-10-27 20:20:01.855944,534,521.13608761293926
2015-10-27 20:20:01.871792,530,521.0322630344416
2015-10-27 20:20:01.871932,527,520.92843845594416
2015-10-27 20:20:01.872006,522,520.82461387744661
2015-10-27 20:20:01.887856,518,520.72078929894906
2015-10-27 20:20:01.887950,512,520.61696472045151
2015-10-27 20:20:01.888016,510,520.51314014195395
2015-10-27 20:20:01.903872,507,520.4093155634564
2015-10-27 20:20:01.903962,504,520.30549098495885
2015-10-27 20:20:01.904026,503,520.19907821601032
2015-10-27 20:20:01.919836,507,520.09266544706179
2015-10-27 20:20:01.919925,506,519.98625267811315
2015-10-27 20:20:01.919990,499,519.87983990916462
2015-10-27 20:20:01.935600,495,519.77342714021597
2015-10-27 20:20:01.935690,495,519.66701437126733
2015-10-27 20:20:01.935755,496,519.5606016023188
2015-10-27 20:20:01.951565,497,519.45418883337027
2015-10-27 20:20:01.951654,499,519.34777606442162
2015-10-27 20:20:01.951717,499,519.24136329547309
2015-10-27 20:20:01.967647,497,519.13495052652445
2015-10-27 20:20:01.967740,497,519.02853775757592
2015-10-27 20:20:01.967805,499,518.92212498862739
2015-10-27 20:20:01.983891,500,518.81571221967874
2015-10-27 20:20:01.984088,498,518.70800535550461
2015-10-27 20:20:01.984200,496,518.60029849133059
2015-10-27 20:20:01.999650,498,518.49259162715657
2015-10-27 20:20:01.999740,497,518.38488476298244
2015-10-27 20:20:01.999805,497,518.27717789880842
2015-10-27 20:20:02.015551,500,518.16947103463428
2015-10-27 20:20:02.015645,502,518.06176417046026
2015-10-27 20:20:02.015711,500,517.95405730628613
2015-10-27 20:20:02.031710,495,517.48371348928322
2015-10-27 20:20:02.031803,491,516.83984977531884
2015-10-27 20:20:02.031915,492,516.39365410397329
2015-10-27 20:20:02.047666,494,516.37123971716915
2015-10-27 20:20:02.047882,492,516.37123971716915
2015-10-27 20:20:02.047964,493,516.37123971716915
2015-10-27 20:20:02.063726,493,516.37123971716915
2015-10-27 20:20:02.063832,485,516.37123971716915
2015-10-27 20:20:02.063898,478,516.37123971716915
2015-10-27 20:20:02.079737,482,516.37123971716915
2015-10-27 20:20:02.079889,488,516.37123971716915
2015-10-27 20:20:02.079975,487,516.37123971716915
2015-10-27 20:20:02.095468,486,516.37123971716915
2015-10-27 20:20:02.095573,482,516.37123971716915
2015-10-27 20:20:02.095639,482,516.37123971716915
2015-10-27 20:20:02.095701,487,516.37123971716915
2015-10-27 20:20:02.111861,487,516.37123971716915
2015-10-27 20:20:02.111954,490,516.37123971716915
2015-10-27 20:20:02.112019,489,516.37123971716915
2015-10-27 20:20:02.127784,486,516.37123971716915
2015-10-27 20:20:02.127932,488,516.37123971716915
2015-10-27 20:20:02.128003,489,516.37123971716915
2015-10-27 20:20:02.143718,487,516.37123971716915
2015-10-27 20:20:02.143809,484,516.37123971716915
2015-10-27 20:20:02.143874,483,516.37123971716915
2015-10-27 20:20:02.159735,487,516.37123971716915
2015-10-27 20:20:02.159829,493,516.37123971716915
2015-10-27 20:20:02.159894,492,516.37123971716915
2015-10-27 20:20:02.175694,492,516.37123971716915
2015-10-27 20:20:02.175783,497,516.37123971716915
2015-10-27 20:20:02.175848,500,516.37123971716915
2015-10-27 20:20:02.191549,501,516.37123971716915
2015-10-27 20:20:02.191643,505,516.37123971716915
2015-10-27 20:20:02.191707,513,516.37123971716915
2015-10-27 20:20:02.207480,508,516.37123971716915
2015-10-27 20:20:02.207571,504,516.37123971716915
2015-10-27 20:20:02.207636,506,516.37123971716915
2015-10-27 20:20:02.223548,510,516.37123971716915
2015-10-27 20:20:02.223640,510,516.37123971716915
2015-10-27 20:20:02.223704,509,516.37123971716915
2015-10-27 20:20:02.239775,508,516.37123971716915
2015-10-27 20:20:02.239871,509,516.37123971716915
2015-10-27 20:20:02.239937,507,516.37123971716915
2015-10-27 20:20:02.255582,505,516.37123971716915
2015-10-27 20:20:02.255675,503,516.37123971716915
2015-10-27 20:20:02.255741,502,516.37123971716915
2015-10-27 20:20:02.271698,495,516.37123971716915
2015-10-27 20:20:02.271795,490,516.37123971716915
2015-10-27 20:20:02.271861,494,516.37123971716915
2015-10-27 20:20:02.287701,499,516.37123971716915
2015-10-27 20:20:02.287820,497,516.37123971716915
2015-10-27 20:20:02.287889,495,516.37123971716915
2015-10-27 20:20:02.303743,493,516.37123971716915
2015-10-27 20:20:02.303913,492,516.37123971716915
2015-10-27 20:20:02.304036,491,516.37123971716915
2015-10-27 20:20:02.319591,494,516.37123971716915
2015-10-27 20:20:02.319698,494,516.37123971716915
2015-10-27 20:20:02.319765,493,516.37123971716915
2015-10-27 20:20:02.335615,492,516.37123971716915
2015-10-27 20:20:02.335733,493,516.37123971716915
2015-10-27 20:20:02.335800,496,516.37123971716915
2015-10-27 20:20:02.335863,500,516.37123971716915
2015-10-27 20:20:02.351455,502,516.37123971716915
2015-10-27 20:20:02.351543,506,516.37123971716915
2015-10-27 20:20:02.351608,511,516.37123971716915
2015-10-27 20:20:02.367640,515,516.37123971716915
2015-10-27 20:20:02.367788,516,516.37123971716915
2015-10-27 20:20:02.367910,526,516.37123971716915
2015-10-27 20:20:02.383523,534,516.37123971716915
2015-10-27 20:20:02.383612,542,516.37123971716915
2015-10-27 20:20:02.383677,552,516.37123971716915
2015-10-27 20:20:02.399580,556,516.37123971716915
2015-10-27 20:20:02.399670,557,516.37123971716915
2015-10-27 20:20:02.399736,558,516.37123971716915
2015-10-27 20:20:02.415424,557,516.37123971716915
2015-10-27 20:20:02.415514,564,516.37123971716915
2015-10-27 20:20:02.415578,565,516.37123971716915
2015-10-27 20:20:02.431536,563,516.37123971716915
2015-10-27 20:20:02.431625,556,516.37123971716915
2015-10-27 20:20:02.431690,553,516.37123971716915
2015-10-27 20:20:02.447538,555,516.37123971716915
2015-10-27 20:20:02.447628,560,516.37123971716915
2015-10-27 20:20:02.447693,566,516.37123971716915
2015-10-27 20:20:02.463462,567,516.37123971716915
2015-10-27 20:20:02.463554,563,516.37123971716915
2015-10-27 20:20:02.463621,561,516.37123971716915
2015-10-27 20:20:02.479579,561,516.37123971716915
2015-10-27 20:20:02.479670,569,516.37123971716915
2015-10-27 20:20:02.479734,573,516.37123971716915
2015-10-27 20:20:02.495349,575,516.37123971716915
2015-10-27 20:20:02.495442,578,516.37123971716915
2015-10-27 20:20:02.495508,577,516.37123971716915
2015-10-27 20:20:02.511485,575,516.35571057446293
2015-10-27 20:20:02.511576,578,516.34018143175683
2015-10-27 20:20:02.511642,579,516.32465228905062
2015-10-27 20:20:02.527369,569,516.30912314634452
2015-10-27 20:20:02.527466,555,516.29359400363842
2015-10-27 20:20:02.527531,563,516.2780648609322
2015-10-27 20:20:02.543351,593,516.2625357182261
2015-10-27 20:20:02.543457,650,516.24700657551989
2015-10-27 20:20:02.543522,748,516.23147743281379
2015-10-27 20:20:02.559387,840,516.21594829010769
2015-10-27 20:20:02.559495,917,516.50387447162734
2015-10-27 20:20:02.559565,952,517.21662219300026
2015-10-27 20:20:02.575529,885,518.06908240741473
2015-10-27 20:20:02.575635,717,518.92154262182908
2015-10-27 20:20:02.575701,524,519.77400283624343
2015-10-27 20:20:02.575762,453,520.47226167022211
2015-10-27 20:20:02.591515,492,521.17052050420079
2015-10-27 20:20:02.591604,541,521.86877933817948
2015-10-27 20:20:02.591669,562,522.56703817215816
2015-10-27 20:20:02.607358,561,523.26529700613696
2015-10-27 20:20:02.607448,562,523.96355584011565
2015-10-27 20:20:02.607513,568,524.66181467409433
2015-10-27 20:20:02.623363,568,525.36007350807301
2015-10-27 20:20:02.623454,564,526.0583323420517
2015-10-27 20:20:02.623519,563,526.75659117603038
2015-10-27 20:20:02.639562,567,527.45485001000907
2015-10-27 20:20:02.639652,569,528.15310884398775
2015-10-27 20:20:02.639718,568,528.85136767796644
2015-10-27 20:20:02.655589,568,529.54962651194512
2015-10-27 20:20:02.655680,573,530.24788534592381
2015-10-27 20:20:02.655745,574,530.94614417990249
2015-10-27 20:20:02.671337,573,531.64440301388117
2015-10-27 20:20:02.671426,570,532.34266184785986
2015-10-27 20:20:02.671489,567,533.04092068183854
2015-10-27 20:20:02.687602,567,533.73917951581723
2015-10-27 20:20:02.687692,571,534.43743834979591
2015-10-27 20:20:02.687757,576,535.1356971837746
2015-10-27 20:20:02.703564,573,535.83395601775328
2015-10-27 20:20:02.703751,572,536.53221485173196
2015-10-27 20:20:02.703829,573,537.23047368571065
2015-10-27 20:20:02.719505,576,537.92873251968933
2015-10-27 20:20:02.719596,581,538.62699135366802
2015-10-27 20:20:02.719660,582,539.3252501876467
2015-10-27 20:20:02.735342,583,540.02350902162539
2015-10-27 20:20:02.735496,582,540.72176785560418
2015-10-27 20:20:02.735629,587,541.42002668958287
2015-10-27 20:20:02.751445,594,542.11828552356155
2015-10-27 20:20:02.751538,598,542.81654435754024
2015-10-27 20:20:02.751603,603,543.51480319151892
2015-10-27 20:20:02.767406,607,544.21306202549761
2015-10-27 20:20:02.767584,613,544.91132085947629
2015-10-27 20:20:02.767663,618,545.60957969345498
2015-10-27 20:20:02.783387,620,546.30783852743366
2015-10-27 20:20:02.783479,623,547.00609736141234
2015-10-27 20:20:02.783544,629,547.70435619539103
2015-10-27 20:20:02.799220,637,548.40261502936971
2015-10-27 20:20:02.799326,644,549.1008738633484
2015-10-27 20:20:02.799391,651,549.79913269732708
2015-10-27 20:20:02.815234,653,550.49739153130565
2015-10-27 20:20:02.815343,653,551.19565036528434
2015-10-27 20:20:02.815410,648,551.89390919926302
2015-10-27 20:20:02.831210,637,552.59216803324171
2015-10-27 20:20:02.831332,627,553.29042686722039
2015-10-27 20:20:02.831399,622,553.98868570119907
2015-10-27 20:20:02.831461,615,554.68694453517776
2015-10-27 20:20:02.847407,608,555.38520336915644
2015-10-27 20:20:02.847497,598,556.08346220313513
2015-10-27 20:20:02.847563,590,556.78172103711381
2015-10-27 20:20:02.863397,572,557.4799798710925
2015-10-27 20:20:02.863488,550,558.17823870507118
2015-10-27 20:20:02.863553,534,558.87649753904986
2015-10-27 20:20:02.879430,522,559.57475637302855
2015-10-27 20:20:02.879594,506,560.27301520700735
2015-10-27 20:20:02.879696,489,560.97127404098603
2015-10-27 20:20:02.895365,479,561.66280855892353
2015-10-27 20:20:02.895458,472,562.30579294563279
2015-10-27 20:20:02.895523,462,562.8529711651114
2015-10-27 20:20:02.911550,458,563.35203891698927
2015-10-27 20:20:02.911640,458,563.85508186640061
2015-10-27 20:20:02.911704,458,564.36330119671402
2015-10-27 20:20:02.927515,456,564.85479020095272
2015-10-27 20:20:02.927623,452,565.31187120958691
2015-10-27 20:20:02.927696,449,565.74196204219925
2015-10-27 20:20:02.943519,451,566.16532855877017
2015-10-27 20:20:02.943610,450,566.57938256884893
2015-10-27 20:20:02.943674,451,566.99473067415317
2015-10-27 20:20:02.959346,455,567.41007877945742
2015-10-27 20:20:02.959437,453,567.82542688476167
2015-10-27 20:20:02.959501,446,568.21567950095368
2015-10-27 20:20:02.975402,442,568.56057076805291
2015-10-27 20:20:02.975493,445,568.89166665129915
2015-10-27 20:20:02.975558,447,569.22535072499636
2015-10-27 20:20:02.991443,445,569.55808745523859
2015-10-27 20:20:02.991536,443,569.87538795463161
2015-10-27 20:20:02.991602,441,570.17501078449504
2015-10-27 20:20:03.007372,442,570.47498036612899
2015-10-27 20:20:03.007518,441,570.76787887995101
2015-10-27 20:20:03.007604,443,571.06077739377315
2015-10-27 20:20:03.023334,444,571.35367590759529
2015-10-27 20:20:03.023426,441,571.64433298273684
2015-10-27 20:20:03.023491,446,571.95051920058472
2015-10-27 20:20:03.039358,451,572.25670541843249
2015-10-27 20:20:03.039466,453,572.56289163628014
2015-10-27 20:20:03.039537,453,572.86907785412802
2015-10-27 20:20:03.055320,452,573.17526407197579
2015-10-27 20:20:03.055427,448,573.48145028982356
2015-10-27 20:20:03.055494,448,573.78763650767132
2015-10-27 20:20:03.071160,445,574.09382272551909
2015-10-27 20:20:03.071270,441,574.40130303859235
2015-10-27 20:20:03.071338,444,574.70878335166572
2015-10-27 20:20:03.071402,443,574.71280834051322
2015-10-27 20:20:03.087406,443,574.29201178950734
2015-10-27 20:20:03.087496,445,573.73150274546015
2015-10-27 20:20:03.087562,451,573.17099370141295
2015-10-27 20:20:03.103401,459,572.61048465736576
2015-10-27 20:20:03.103492,457,572.20417699375423
2015-10-27 20:20:03.103557,453,571.7978693301427
2015-10-27 20:20:03.119591,450,571.39156166653117
2015-10-27 20:20:03.119720,449,570.98525400291965
2015-10-27 20:20:03.119788,446,570.57894633930823
2015-10-27 20:20:03.135370,446,570.1726386756967
2015-10-27 20:20:03.135477,449,569.76633101208517
2015-10-27 20:20:03.135544,450,569.36002334847365
2015-10-27 20:20:03.151416,447,568.95371568486212
2015-10-27 20:20:03.151509,447,568.5474080212507
2015-10-27 20:20:03.151574,451,568.14110035763917
2015-10-27 20:20:03.167432,453,567.73479269402765
2015-10-27 20:20:03.167524,454,567.32848503041623
2015-10-27 20:20:03.167589,456,566.9221773668047
2015-10-27 20:20:03.184245,458,566.51586970319318
2015-10-27 20:20:03.184354,458,566.10956203958165
2015-10-27 20:20:03.184419,455,565.70325437597012
2015-10-27 20:20:03.199281,452,565.29694671235859
2015-10-27 20:20:03.199370,460,564.89063904874706
2015-10-27 20:20:03.199456,464,564.48433138513565
2015-10-27 20:20:03.215398,467,564.07802372152412
2015-10-27 20:20:03.215512,467,563.67171605791259
2015-10-27 20:20:03.215578,462,563.26540839430118
2015-10-27 20:20:03.231213,458,562.85910073068965
2015-10-27 20:20:03.231306,459,562.45279306707812
2015-10-27 20:20:03.231373,462,562.04648540346659
2015-10-27 20:20:03.247411,461,561.64017773985506
2015-10-27 20:20:03.247506,460,561.23387007624353
2015-10-27 20:20:03.247579,459,560.82756241263201
2015-10-27 20:20:03.263151,464,560.42125474902048
2015-10-27 20:20:03.263313,462,560.01494708540906
2015-10-27 20:20:03.263464,461,559.60863942179753
2015-10-27 20:20:03.279429,464,559.20233175818601
2015-10-27 20:20:03.279590,469,558.79602409457459
2015-10-27 20:20:03.279696,468,558.38971643096306
2015-10-27 20:20:03.295365,465,557.98340876735153
2015-10-27 20:20:03.295473,466,557.57710110374012
2015-10-27 20:20:03.295538,469,557.17079344012859
2015-10-27 20:20:03.311205,467,556.76448577651706
2015-10-27 20:20:03.311313,465,556.35817811290565
2015-10-27 20:20:03.311378,468,555.95187044929423
2015-10-27 20:20:03.311440,473,555.5455627856827
2015-10-27 20:20:03.327462,468,555.13925512207129
2015-10-27 20:20:03.327555,467,554.73294745845976
2015-10-27 20:20:03.327619,474,554.32663979484823
2015-10-27 20:20:03.343381,476,553.92033213123671
2015-10-27 20:20:03.343471,476,553.51402446762518
2015-10-27 20:20:03.343537,479,553.10771680401365
2015-10-27 20:20:03.359407,484,552.70140914040212
2015-10-27 20:20:03.359496,479,552.29510147679071
2015-10-27 20:20:03.359560,480,551.88879381317918
2015-10-27 20:20:03.375257,483,551.48248614956765
2015-10-27 20:20:03.375346,483,551.07617848595612
2015-10-27 20:20:03.375411,481,550.66987082234459
2015-10-27 20:20:03.391107,481,550.26356315873306
2015-10-27 20:20:03.391195,485,549.85725549512154
2015-10-27 20:20:03.391260,491,549.45094783151012
2015-10-27 20:20:03.407203,489,549.04464016789859
2015-10-27 20:20:03.407292,485,548.63833250428706
2015-10-27 20:20:03.407357,486,548.23874915671684
2015-10-27 20:20:03.423355,490,547.88771594037462
2015-10-27 20:20:03.423449,489,547.63248889126328
2015-10-27 20:20:03.423514,490,547.42537230975245
2015-10-27 20:20:03.439266,496,547.21428053070827
2015-10-27 20:20:03.439357,493,546.99801237076213
2015-10-27 20:20:03.439421,487,546.79847453689069
2015-10-27 20:20:03.455305,490,546.63334469862366
2015-10-27 20:20:03.455402,494,546.49520503637848
2015-10-27 20:20:03.455468,492,546.36378969017471
2015-10-27 20:20:03.471299,491,546.24168685046311
2015-10-27 20:20:03.471391,492,546.11828991552602
2015-10-27 20:20:03.471460,493,545.99489298058904
2015-10-27 20:20:03.487358,488,545.87149604565195
2015-10-27 20:20:03.487511,480,545.77319459982709
2015-10-27 20:20:03.487639,472,545.72025450309502
2015-10-27 20:20:03.503267,469,545.68110979021606
2015-10-27 20:20:03.503388,467,545.639376886886
2015-10-27 20:20:03.503454,469,545.59859132701092
