2015-10-24 13:41:18.922494, 449
2015-10-24 13:41:18.922674, 449
2015-10-24 13:41:18.922831, 450
2015-10-24 13:41:18.938540, 449
2015-10-24 13:41:18.938721, 449
2015-10-24 13:41:18.938874, 450
2015-10-24 13:41:18.954450, 452
2015-10-24 13:41:18.954638, 455
2015-10-24 13:41:18.954797, 457
2015-10-24 13:41:18.970501, 461
2015-10-24 13:41:18.970691, 464
2015-10-24 13:41:18.970851, 464
2015-10-24 13:41:18.986449, 464
2015-10-24 13:41:18.986639, 467
2015-10-24 13:41:18.986797, 469
2015-10-24 13:41:19.002355, 470
2015-10-24 13:41:19.002609, 471
2015-10-24 13:41:19.002768, 473
2015-10-24 13:41:19.018204, 475
2015-10-24 13:41:19.018459, 477
2015-10-24 13:41:19.018619, 479
2015-10-24 13:41:19.034328, 480
2015-10-24 13:41:19.034579, 481
2015-10-24 13:41:19.034740, 478
2015-10-24 13:41:19.034894, 478
2015-10-24 13:41:19.050502, 480
2015-10-24 13:41:19.050682, 481
2015-10-24 13:41:19.050841, 479
2015-10-24 13:41:19.066570, 480
2015-10-24 13:41:19.066748, 480
2015-10-24 13:41:19.066901, 480
2015-10-24 13:41:19.082471, 480
2015-10-24 13:41:19.082650, 482
2015-10-24 13:41:19.082804, 483
2015-10-24 13:41:19.098228, 480
2015-10-24 13:41:19.098379, 478
2015-10-24 13:41:19.098551, 477
2015-10-24 13:41:19.114453, 480
2015-10-24 13:41:19.114631, 484
2015-10-24 13:41:19.114787, 485
2015-10-24 13:41:19.130597, 485
2015-10-24 13:41:19.130861, 485
2015-10-24 13:41:19.131024, 483
2015-10-24 13:41:19.146390, 484
2015-10-24 13:41:19.146567, 485
2015-10-24 13:41:19.146724, 489
2015-10-24 13:41:19.162394, 492
2015-10-24 13:41:19.162576, 494
2015-10-24 13:41:19.162729, 496
2015-10-24 13:41:19.178515, 497
2015-10-24 13:41:19.178788, 499
2015-10-24 13:41:19.178960, 499
2015-10-24 13:41:19.194434, 503
2015-10-24 13:41:19.194627, 505
2015-10-24 13:41:19.194779, 502
2015-10-24 13:41:19.210440, 500
2015-10-24 13:41:19.210716, 503
2015-10-24 13:41:19.210897, 509
2015-10-24 13:41:19.226335, 512
2015-10-24 13:41:19.226515, 515
2015-10-24 13:41:19.226664, 516
2015-10-24 13:41:19.242322, 513
2015-10-24 13:41:19.242542, 504
2015-10-24 13:41:19.242695, 494
2015-10-24 13:41:19.258228, 488
2015-10-24 13:41:19.258478, 488
2015-10-24 13:41:19.258630, 488
2015-10-24 13:41:19.274230, 491
2015-10-24 13:41:19.274481, 492
2015-10-24 13:41:19.274639, 493
2015-10-24 13:41:19.274791, 493
2015-10-24 13:41:19.290370, 494
2015-10-24 13:41:19.290546, 495
2015-10-24 13:41:19.290697, 496
2015-10-24 13:41:19.306367, 501
2015-10-24 13:41:19.306543, 511
2015-10-24 13:41:19.306694, 514
2015-10-24 13:41:19.322433, 545
2015-10-24 13:41:19.322615, 619
2015-10-24 13:41:19.322773, 702
2015-10-24 13:41:19.338345, 792
2015-10-24 13:41:19.338523, 837
2015-10-24 13:41:19.338679, 810
2015-10-24 13:41:19.354351, 730
2015-10-24 13:41:19.354525, 543
2015-10-24 13:41:19.354675, 391
2015-10-24 13:41:19.370370, 381
2015-10-24 13:41:19.370551, 412
2015-10-24 13:41:19.370707, 447
2015-10-24 13:41:19.386152, 483
2015-10-24 13:41:19.386333, 504
2015-10-24 13:41:19.386485, 509
2015-10-24 13:41:19.402339, 506
2015-10-24 13:41:19.402518, 506
2015-10-24 13:41:19.402673, 506
2015-10-24 13:41:19.418267, 510
2015-10-24 13:41:19.418443, 514
2015-10-24 13:41:19.418597, 517
2015-10-24 13:41:19.434098, 521
2015-10-24 13:41:19.434278, 524
2015-10-24 13:41:19.434432, 526
2015-10-24 13:41:19.450371, 530
2015-10-24 13:41:19.450558, 534
2015-10-24 13:41:19.450712, 537
2015-10-24 13:41:19.465991, 539
2015-10-24 13:41:19.466171, 543
2015-10-24 13:41:19.466324, 548
2015-10-24 13:41:19.482181, 553
2015-10-24 13:41:19.482444, 557
2015-10-24 13:41:19.482605, 564
2015-10-24 13:41:19.498031, 570
2015-10-24 13:41:19.498228, 576
2015-10-24 13:41:19.498380, 583
2015-10-24 13:41:19.514209, 593
2015-10-24 13:41:19.514559, 602
2015-10-24 13:41:19.514742, 609
2015-10-24 13:41:19.514897, 615
2015-10-24 13:41:19.530277, 619
2015-10-24 13:41:19.530456, 619
2015-10-24 13:41:19.530606, 616
2015-10-24 13:41:19.546405, 611
2015-10-24 13:41:19.546654, 608
2015-10-24 13:41:19.546817, 601
2015-10-24 13:41:19.561841, 593
2015-10-24 13:41:19.561901, 584
2015-10-24 13:41:19.561947, 574
2015-10-24 13:41:19.577889, 560
2015-10-24 13:41:19.577948, 544
2015-10-24 13:41:19.577993, 529
2015-10-24 13:41:19.593815, 515
2015-10-24 13:41:19.593894, 501
2015-10-24 13:41:19.593942, 490
2015-10-24 13:41:19.609788, 481
2015-10-24 13:41:19.609854, 476
2015-10-24 13:41:19.609900, 469
2015-10-24 13:41:19.625802, 464
2015-10-24 13:41:19.625862, 463
2015-10-24 13:41:19.625908, 464
2015-10-24 13:41:19.641797, 460
2015-10-24 13:41:19.641863, 456
2015-10-24 13:41:19.641910, 456
2015-10-24 13:41:19.657808, 457
2015-10-24 13:41:19.657871, 457
2015-10-24 13:41:19.657917, 456
2015-10-24 13:41:19.673895, 459
2015-10-24 13:41:19.674020, 462
2015-10-24 13:41:19.674118, 461
2015-10-24 13:41:19.689784, 464
2015-10-24 13:41:19.689847, 468
2015-10-24 13:41:19.689893, 470
2015-10-24 13:41:19.705743, 473
2015-10-24 13:41:19.705849, 477
2015-10-24 13:41:19.705933, 480
2015-10-24 13:41:19.721853, 481
2015-10-24 13:41:19.721924, 482
2015-10-24 13:41:19.721974, 484
2015-10-24 13:41:19.737728, 486
2015-10-24 13:41:19.737803, 485
2015-10-24 13:41:19.737851, 485
2015-10-24 13:41:19.754028, 486
2015-10-24 13:41:19.754275, 487
2015-10-24 13:41:19.754426, 487
2015-10-24 13:41:19.770081, 486
2015-10-24 13:41:19.770330, 486
2015-10-24 13:41:19.770483, 486
2015-10-24 13:41:19.770634, 485
2015-10-24 13:41:19.785878, 483
2015-10-24 13:41:19.786003, 483
2015-10-24 13:41:19.786115, 482
2015-10-24 13:41:19.801745, 477
2015-10-24 13:41:19.801803, 478
2015-10-24 13:41:19.801849, 481
2015-10-24 13:41:19.817799, 480
2015-10-24 13:41:19.817861, 479
2015-10-24 13:41:19.817907, 481
2015-10-24 13:41:19.833703, 483
2015-10-24 13:41:19.833758, 481
2015-10-24 13:41:19.833803, 481
2015-10-24 13:41:19.849726, 482
2015-10-24 13:41:19.849785, 485
2015-10-24 13:41:19.849830, 488
2015-10-24 13:41:19.866182, 488
2015-10-24 13:41:19.866364, 489
2015-10-24 13:41:19.866522, 492
2015-10-24 13:41:19.882258, 492
2015-10-24 13:41:19.882530, 491
2015-10-24 13:41:19.882702, 494
2015-10-24 13:41:19.898148, 493
2015-10-24 13:41:19.898333, 488
2015-10-24 13:41:19.898493, 490
2015-10-24 13:41:19.913666, 495
2015-10-24 13:41:19.913725, 500
2015-10-24 13:41:19.913771, 502
2015-10-24 13:41:19.930211, 504
2015-10-24 13:41:19.930500, 502
2015-10-24 13:41:19.930672, 496
2015-10-24 13:41:19.946047, 488
2015-10-24 13:41:19.946233, 478
2015-10-24 13:41:19.946388, 476
2015-10-24 13:41:19.962186, 477
2015-10-24 13:41:19.962460, 479
2015-10-24 13:41:19.962632, 478
2015-10-24 13:41:19.977755, 479
2015-10-24 13:41:19.977926, 479
2015-10-24 13:41:19.978029, 478
2015-10-24 13:41:19.993733, 479
2015-10-24 13:41:19.993876, 480
2015-10-24 13:41:19.993974, 483
2015-10-24 13:41:20.009589, 496
2015-10-24 13:41:20.009694, 500
2015-10-24 13:41:20.009759, 510
2015-10-24 13:41:20.009806, 557
2015-10-24 13:41:20.025602, 629
2015-10-24 13:41:20.025656, 714
2015-10-24 13:41:20.025703, 781
2015-10-24 13:41:20.041635, 780
2015-10-24 13:41:20.041707, 742
2015-10-24 13:41:20.041753, 620
2015-10-24 13:41:20.058071, 434
2015-10-24 13:41:20.058245, 357
2015-10-24 13:41:20.058400, 374
2015-10-24 13:41:20.074051, 407
2015-10-24 13:41:20.074229, 446
2015-10-24 13:41:20.074384, 475
2015-10-24 13:41:20.090123, 485
2015-10-24 13:41:20.090307, 486
2015-10-24 13:41:20.090492, 485
2015-10-24 13:41:20.105997, 486
2015-10-24 13:41:20.106177, 489
2015-10-24 13:41:20.106329, 493
2015-10-24 13:41:20.121998, 496
2015-10-24 13:41:20.122181, 497
2015-10-24 13:41:20.122338, 501
2015-10-24 13:41:20.137997, 507
2015-10-24 13:41:20.138176, 512
2015-10-24 13:41:20.138329, 514
2015-10-24 13:41:20.154003, 518
2015-10-24 13:41:20.154179, 521
2015-10-24 13:41:20.154331, 523
2015-10-24 13:41:20.169934, 527
2015-10-24 13:41:20.170117, 532
2015-10-24 13:41:20.170269, 536
2015-10-24 13:41:20.185831, 541
2015-10-24 13:41:20.186012, 547
2015-10-24 13:41:20.186167, 555
2015-10-24 13:41:20.202009, 561
2015-10-24 13:41:20.202199, 568
2015-10-24 13:41:20.202351, 576
2015-10-24 13:41:20.217734, 587
2015-10-24 13:41:20.217934, 591
2015-10-24 13:41:20.218089, 592
2015-10-24 13:41:20.233911, 595
2015-10-24 13:41:20.234177, 598
2015-10-24 13:41:20.234336, 597
2015-10-24 13:41:20.249830, 592
2015-10-24 13:41:20.250081, 587
2015-10-24 13:41:20.250238, 579
2015-10-24 13:41:20.250385, 570
2015-10-24 13:41:20.265900, 559
2015-10-24 13:41:20.266076, 545
2015-10-24 13:41:20.266229, 528
2015-10-24 13:41:20.281983, 510
2015-10-24 13:41:20.282160, 492
2015-10-24 13:41:20.282317, 480
2015-10-24 13:41:20.297822, 469
2015-10-24 13:41:20.297997, 458
2015-10-24 13:41:20.298149, 452
2015-10-24 13:41:20.313948, 447
2015-10-24 13:41:20.314122, 442
2015-10-24 13:41:20.314275, 436
2015-10-24 13:41:20.329915, 433
2015-10-24 13:41:20.330097, 432
2015-10-24 13:41:20.330250, 431
2015-10-24 13:41:20.346085, 431
2015-10-24 13:41:20.346344, 433
2015-10-24 13:41:20.346511, 434
2015-10-24 13:41:20.361970, 431
2015-10-24 13:41:20.362151, 430
2015-10-24 13:41:20.362306, 432
2015-10-24 13:41:20.378063, 437
2015-10-24 13:41:20.378329, 439
2015-10-24 13:41:20.378492, 441
2015-10-24 13:41:20.393879, 444
2015-10-24 13:41:20.394057, 447
2015-10-24 13:41:20.394211, 450
2015-10-24 13:41:20.409987, 452
2015-10-24 13:41:20.410177, 456
2015-10-24 13:41:20.410332, 459
2015-10-24 13:41:20.425822, 460
2015-10-24 13:41:20.426001, 461
2015-10-24 13:41:20.426156, 462
2015-10-24 13:41:20.441820, 463
2015-10-24 13:41:20.442002, 463
2015-10-24 13:41:20.442155, 467
2015-10-24 13:41:20.457820, 470
2015-10-24 13:41:20.458005, 467
2015-10-24 13:41:20.458158, 465
2015-10-24 13:41:20.473727, 465
2015-10-24 13:41:20.473998, 465
2015-10-24 13:41:20.474155, 464
2015-10-24 13:41:20.489670, 464
2015-10-24 13:41:20.489921, 465
2015-10-24 13:41:20.490079, 465
2015-10-24 13:41:20.505573, 462
2015-10-24 13:41:20.505776, 461
2015-10-24 13:41:20.505931, 462
2015-10-24 13:41:20.506083, 464
2015-10-24 13:41:20.521818, 463
2015-10-24 13:41:20.522088, 463
2015-10-24 13:41:20.522242, 464
2015-10-24 13:41:20.537816, 464
2015-10-24 13:41:20.537992, 464
2015-10-24 13:41:20.538145, 465
2015-10-24 13:41:20.553707, 468
2015-10-24 13:41:20.553900, 471
2015-10-24 13:41:20.554055, 470
2015-10-24 13:41:20.569787, 472
2015-10-24 13:41:20.569962, 475
2015-10-24 13:41:20.570115, 475
2015-10-24 13:41:20.585785, 474
2015-10-24 13:41:20.585962, 478
2015-10-24 13:41:20.586113, 480
2015-10-24 13:41:20.601642, 478
2015-10-24 13:41:20.601819, 477
2015-10-24 13:41:20.601974, 480
2015-10-24 13:41:20.617794, 484
2015-10-24 13:41:20.617974, 486
2015-10-24 13:41:20.618127, 489
2015-10-24 13:41:20.633591, 491
2015-10-24 13:41:20.633772, 485
2015-10-24 13:41:20.633924, 476
2015-10-24 13:41:20.649744, 468
2015-10-24 13:41:20.649928, 465
2015-10-24 13:41:20.650084, 464
2015-10-24 13:41:20.665709, 463
2015-10-24 13:41:20.665895, 465
2015-10-24 13:41:20.666049, 468
2015-10-24 13:41:20.681675, 468
2015-10-24 13:41:20.681886, 467
2015-10-24 13:41:20.682041, 468
2015-10-24 13:41:20.697690, 469
2015-10-24 13:41:20.697874, 470
2015-10-24 13:41:20.698026, 478
2015-10-24 13:41:20.713695, 486
2015-10-24 13:41:20.714087, 494
2015-10-24 13:41:20.714275, 532
2015-10-24 13:41:20.729596, 611
2015-10-24 13:41:20.729847, 694
2015-10-24 13:41:20.730002, 781
2015-10-24 13:41:20.745572, 804
2015-10-24 13:41:20.745818, 767
2015-10-24 13:41:20.745972, 674
2015-10-24 13:41:20.746124, 483
2015-10-24 13:41:20.761858, 358
2015-10-24 13:41:20.762117, 355
2015-10-24 13:41:20.762283, 389
2015-10-24 13:41:20.777741, 433
2015-10-24 13:41:20.777918, 465
2015-10-24 13:41:20.778073, 477
2015-10-24 13:41:20.793714, 478
2015-10-24 13:41:20.793890, 475
2015-10-24 13:41:20.794043, 477
2015-10-24 13:41:20.809720, 481
2015-10-24 13:41:20.809900, 487
2015-10-24 13:41:20.810055, 492
2015-10-24 13:41:20.825688, 494
2015-10-24 13:41:20.825866, 497
2015-10-24 13:41:20.826019, 498
2015-10-24 13:41:20.841692, 500
2015-10-24 13:41:20.841867, 503
2015-10-24 13:41:20.842019, 510
2015-10-24 13:41:20.857656, 515
2015-10-24 13:41:20.857831, 519
2015-10-24 13:41:20.857984, 523
2015-10-24 13:41:20.873625, 529
2015-10-24 13:41:20.873799, 534
2015-10-24 13:41:20.873947, 539
2015-10-24 13:41:20.889717, 546
2015-10-24 13:41:20.889900, 555
2015-10-24 13:41:20.890056, 562
2015-10-24 13:41:20.905600, 567
2015-10-24 13:41:20.905779, 575
2015-10-24 13:41:20.905934, 585
2015-10-24 13:41:20.921661, 592
2015-10-24 13:41:20.921847, 596
2015-10-24 13:41:20.922003, 600
2015-10-24 13:41:20.937582, 601
2015-10-24 13:41:20.937764, 601
2015-10-24 13:41:20.937916, 598
2015-10-24 13:41:20.953584, 594
2015-10-24 13:41:20.953768, 589
2015-10-24 13:41:20.953918, 582
2015-10-24 13:41:20.969496, 572
2015-10-24 13:41:20.969745, 561
2015-10-24 13:41:20.969898, 547
2015-10-24 13:41:20.985577, 530
2015-10-24 13:41:20.985839, 512
2015-10-24 13:41:20.985994, 496
2015-10-24 13:41:21.001466, 483
2015-10-24 13:41:21.001717, 471
2015-10-24 13:41:21.001873, 461
2015-10-24 13:41:21.002025, 455
2015-10-24 13:41:21.017493, 450
2015-10-24 13:41:21.017672, 446
2015-10-24 13:41:21.017822, 444
2015-10-24 13:41:21.033666, 445
2015-10-24 13:41:21.033849, 446
2015-10-24 13:41:21.034001, 443
2015-10-24 13:41:21.049480, 443
2015-10-24 13:41:21.049656, 445
2015-10-24 13:41:21.049806, 444
2015-10-24 13:41:21.065618, 443
2015-10-24 13:41:21.065837, 445
2015-10-24 13:41:21.065994, 448
2015-10-24 13:41:21.081582, 450
2015-10-24 13:41:21.081762, 451
2015-10-24 13:41:21.081915, 453
2015-10-24 13:41:21.097701, 457
2015-10-24 13:41:21.097969, 459
2015-10-24 13:41:21.098133, 460
2015-10-24 13:41:21.113616, 462
2015-10-24 13:41:21.113793, 464
2015-10-24 13:41:21.113943, 464
2015-10-24 13:41:21.129638, 467
2015-10-24 13:41:21.129895, 470
2015-10-24 13:41:21.130074, 471
2015-10-24 13:41:21.145564, 470
2015-10-24 13:41:21.145741, 472
2015-10-24 13:41:21.145989, 475
2015-10-24 13:41:21.161558, 476
2015-10-24 13:41:21.161746, 477
2015-10-24 13:41:21.161901, 475
2015-10-24 13:41:21.177610, 477
2015-10-24 13:41:21.177884, 477
2015-10-24 13:41:21.178065, 475
2015-10-24 13:41:21.193510, 474
2015-10-24 13:41:21.193695, 476
2015-10-24 13:41:21.193854, 475
2015-10-24 13:41:21.209417, 475
2015-10-24 13:41:21.209672, 475
2015-10-24 13:41:21.209827, 475
2015-10-24 13:41:21.225383, 475
2015-10-24 13:41:21.225633, 473
2015-10-24 13:41:21.225789, 473
2015-10-24 13:41:21.241329, 474
2015-10-24 13:41:21.241581, 472
2015-10-24 13:41:21.241736, 473
2015-10-24 13:41:21.241888, 474
2015-10-24 13:41:21.257570, 473
2015-10-24 13:41:21.257751, 473
2015-10-24 13:41:21.257905, 476
2015-10-24 13:41:21.273591, 479
2015-10-24 13:41:21.273770, 479
2015-10-24 13:41:21.273925, 476
2015-10-24 13:41:21.289514, 478
2015-10-24 13:41:21.289688, 484
2015-10-24 13:41:21.289837, 484
2015-10-24 13:41:21.305493, 482
2015-10-24 13:41:21.305673, 485
2015-10-24 13:41:21.305827, 488
2015-10-24 13:41:21.321514, 488
2015-10-24 13:41:21.321693, 491
2015-10-24 13:41:21.321848, 493
2015-10-24 13:41:21.337468, 491
2015-10-24 13:41:21.337649, 488
2015-10-24 13:41:21.337803, 491
2015-10-24 13:41:21.353407, 497
2015-10-24 13:41:21.353587, 500
2015-10-24 13:41:21.353742, 501
2015-10-24 13:41:21.369537, 503
2015-10-24 13:41:21.369719, 502
2015-10-24 13:41:21.369875, 495
2015-10-24 13:41:21.385289, 485
2015-10-24 13:41:21.385467, 478
2015-10-24 13:41:21.385621, 477
2015-10-24 13:41:21.401403, 478
2015-10-24 13:41:21.401588, 479
2015-10-24 13:41:21.401742, 479
2015-10-24 13:41:21.417433, 479
2015-10-24 13:41:21.417615, 478
2015-10-24 13:41:21.417767, 479
2015-10-24 13:41:21.433245, 480
2015-10-24 13:41:21.433431, 481
2015-10-24 13:41:21.433571, 484
2015-10-24 13:41:21.449454, 493
2015-10-24 13:41:21.449918, 497
2015-10-24 13:41:21.450071, 521
2015-10-24 13:41:21.465137, 587
2015-10-24 13:41:21.465332, 669
2015-10-24 13:41:21.465489, 764
2015-10-24 13:41:21.481270, 829
2015-10-24 13:41:21.481520, 809
2015-10-24 13:41:21.481678, 748
2015-10-24 13:41:21.481831, 585
2015-10-24 13:41:21.497630, 403
2015-10-24 13:41:21.497855, 358
2015-10-24 13:41:21.497964, 383
2015-10-24 13:41:21.513652, 423
2015-10-24 13:41:21.513885, 466
2015-10-24 13:41:21.514049, 484
2015-10-24 13:41:21.529466, 485
2015-10-24 13:41:21.529649, 482
2015-10-24 13:41:21.529810, 482
2015-10-24 13:41:21.545441, 485
2015-10-24 13:41:21.545620, 491
2015-10-24 13:41:21.545778, 497
2015-10-24 13:41:21.561389, 499
2015-10-24 13:41:21.561566, 500
2015-10-24 13:41:21.561719, 502
2015-10-24 13:41:21.577376, 507
2015-10-24 13:41:21.577551, 510
2015-10-24 13:41:21.577766, 512
2015-10-24 13:41:21.593440, 518
2015-10-24 13:41:21.593682, 521
2015-10-24 13:41:21.593806, 523
2015-10-24 13:41:21.609398, 527
2015-10-24 13:41:21.609579, 533
2015-10-24 13:41:21.609735, 542
2015-10-24 13:41:21.625439, 549
2015-10-24 13:41:21.625620, 553
2015-10-24 13:41:21.625775, 560
2015-10-24 13:41:21.641333, 567
2015-10-24 13:41:21.641518, 575
2015-10-24 13:41:21.641675, 583
2015-10-24 13:41:21.657309, 592
2015-10-24 13:41:21.657497, 599
2015-10-24 13:41:21.657655, 604
2015-10-24 13:41:21.673304, 607
2015-10-24 13:41:21.673491, 607
2015-10-24 13:41:21.673647, 604
2015-10-24 13:41:21.689309, 600
2015-10-24 13:41:21.689496, 596
2015-10-24 13:41:21.689650, 592
2015-10-24 13:41:21.705218, 582
2015-10-24 13:41:21.705465, 571
2015-10-24 13:41:21.705619, 559
2015-10-24 13:41:21.721219, 545
2015-10-24 13:41:21.721470, 527
2015-10-24 13:41:21.721626, 510
2015-10-24 13:41:21.737192, 497
2015-10-24 13:41:21.737440, 484
2015-10-24 13:41:21.737599, 469
2015-10-24 13:41:21.737752, 459
2015-10-24 13:41:21.753279, 455
2015-10-24 13:41:21.753546, 451
2015-10-24 13:41:21.753658, 445
2015-10-24 13:41:21.769389, 442
2015-10-24 13:41:21.769576, 442
2015-10-24 13:41:21.769732, 443
2015-10-24 13:41:21.784985, 444
2015-10-24 13:41:21.785090, 444
2015-10-24 13:41:21.785181, 445
2015-10-24 13:41:21.801022, 444
2015-10-24 13:41:21.801146, 444
2015-10-24 13:41:21.801255, 446
2015-10-24 13:41:21.816960, 449
2015-10-24 13:41:21.817074, 453
2015-10-24 13:41:21.817172, 453
2015-10-24 13:41:21.832829, 454
2015-10-24 13:41:21.832884, 460
2015-10-24 13:41:21.832929, 462
2015-10-24 13:41:21.848838, 463
2015-10-24 13:41:21.848898, 465
2015-10-24 13:41:21.848944, 468
2015-10-24 13:41:21.864855, 468
2015-10-24 13:41:21.864914, 467
2015-10-24 13:41:21.864960, 470
2015-10-24 13:41:21.880986, 473
2015-10-24 13:41:21.881067, 475
2015-10-24 13:41:21.881127, 475
2015-10-24 13:41:21.897229, 476
2015-10-24 13:41:21.897421, 477
2015-10-24 13:41:21.897576, 475
2015-10-24 13:41:21.913051, 474
2015-10-24 13:41:21.913198, 478
2015-10-24 13:41:21.913297, 478
2015-10-24 13:41:21.929070, 476
2015-10-24 13:41:21.929257, 477
2015-10-24 13:41:21.929414, 480
2015-10-24 13:41:21.945108, 477
2015-10-24 13:41:21.945360, 474
2015-10-24 13:41:21.945520, 474
2015-10-24 13:41:21.961184, 476
2015-10-24 13:41:21.961550, 477
2015-10-24 13:41:21.961724, 476
2015-10-24 13:41:21.977102, 477
2015-10-24 13:41:21.977355, 478
2015-10-24 13:41:21.977511, 478
2015-10-24 13:41:21.977678, 478
2015-10-24 13:41:21.993263, 479
2015-10-24 13:41:21.993441, 479
2015-10-24 13:41:21.993599, 477
2015-10-24 13:41:22.009356, 476
2015-10-24 13:41:22.009534, 478
2015-10-24 13:41:22.009692, 479
2015-10-24 13:41:22.025255, 478
2015-10-24 13:41:22.025440, 479
2015-10-24 13:41:22.025605, 482
2015-10-24 13:41:22.041213, 483
2015-10-24 13:41:22.041392, 482
2015-10-24 13:41:22.041547, 482
2015-10-24 13:41:22.057219, 482
2015-10-24 13:41:22.057401, 484
2015-10-24 13:41:22.057558, 487
2015-10-24 13:41:22.073212, 491
2015-10-24 13:41:22.073390, 492
2015-10-24 13:41:22.073542, 492
2015-10-24 13:41:22.089188, 492
2015-10-24 13:41:22.089375, 493
2015-10-24 13:41:22.089529, 497
2015-10-24 13:41:22.105166, 495
2015-10-24 13:41:22.105346, 492
2015-10-24 13:41:22.105499, 495
2015-10-24 13:41:22.121165, 499
2015-10-24 13:41:22.121346, 500
2015-10-24 13:41:22.121500, 502
2015-10-24 13:41:22.137229, 507
2015-10-24 13:41:22.137416, 509
2015-10-24 13:41:22.137569, 504
2015-10-24 13:41:22.153140, 494
2015-10-24 13:41:22.153323, 487
2015-10-24 13:41:22.153479, 480
2015-10-24 13:41:22.169105, 479
2015-10-24 13:41:22.169286, 480
2015-10-24 13:41:22.169438, 481
2015-10-24 13:41:22.185025, 481
2015-10-24 13:41:22.185274, 481
2015-10-24 13:41:22.185429, 482
2015-10-24 13:41:22.200927, 483
2015-10-24 13:41:22.201125, 482
2015-10-24 13:41:22.201282, 482
2015-10-24 13:41:22.216928, 491
2015-10-24 13:41:22.217129, 502
2015-10-24 13:41:22.217286, 504
2015-10-24 13:41:22.217437, 536
2015-10-24 13:41:22.233238, 614
2015-10-24 13:41:22.233412, 701
2015-10-24 13:41:22.233562, 794
2015-10-24 13:41:22.249203, 834
2015-10-24 13:41:22.249380, 804
2015-10-24 13:41:22.249533, 714
2015-10-24 13:41:22.265031, 519
2015-10-24 13:41:22.265211, 377
2015-10-24 13:41:22.265365, 367
2015-10-24 13:41:22.281122, 399
2015-10-24 13:41:22.281299, 438
2015-10-24 13:41:22.281451, 472
2015-10-24 13:41:22.296986, 487
2015-10-24 13:41:22.297163, 488
2015-10-24 13:41:22.297318, 485
2015-10-24 13:41:22.313151, 486
2015-10-24 13:41:22.313326, 490
2015-10-24 13:41:22.313478, 493
2015-10-24 13:41:22.329112, 495
2015-10-24 13:41:22.329289, 498
2015-10-24 13:41:22.329454, 500
2015-10-24 13:41:22.345243, 503
2015-10-24 13:41:22.345513, 506
2015-10-24 13:41:22.345679, 512
2015-10-24 13:41:22.361112, 518
2015-10-24 13:41:22.361288, 519
2015-10-24 13:41:22.361439, 522
2015-10-24 13:41:22.377169, 526
2015-10-24 13:41:22.377444, 532
2015-10-24 13:41:22.377622, 537
2015-10-24 13:41:22.393160, 545
2015-10-24 13:41:22.393345, 553
2015-10-24 13:41:22.393500, 559
2015-10-24 13:41:22.409080, 564
2015-10-24 13:41:22.409361, 570
2015-10-24 13:41:22.409520, 578
2015-10-24 13:41:22.424995, 584
2015-10-24 13:41:22.425246, 592
2015-10-24 13:41:22.425403, 598
2015-10-24 13:41:22.440857, 602
2015-10-24 13:41:22.441059, 603
2015-10-24 13:41:22.441211, 603
2015-10-24 13:41:22.457010, 604
2015-10-24 13:41:22.457257, 600
2015-10-24 13:41:22.457414, 593
2015-10-24 13:41:22.457566, 587
2015-10-24 13:41:22.473037, 578
2015-10-24 13:41:22.473211, 569
2015-10-24 13:41:22.473361, 557
2015-10-24 13:41:22.489052, 542
2015-10-24 13:41:22.489229, 526
2015-10-24 13:41:22.489380, 510
2015-10-24 13:41:22.504842, 495
2015-10-24 13:41:22.505019, 482
2015-10-24 13:41:22.505171, 471
2015-10-24 13:41:22.521211, 464
2015-10-24 13:41:22.521496, 457
2015-10-24 13:41:22.521628, 450
2015-10-24 13:41:22.537053, 447
2015-10-24 13:41:22.537230, 447
2015-10-24 13:41:22.537384, 447
2015-10-24 13:41:22.553006, 446
2015-10-24 13:41:22.553182, 443
2015-10-24 13:41:22.553333, 443
2015-10-24 13:41:22.568999, 444
2015-10-24 13:41:22.569174, 447
2015-10-24 13:41:22.569325, 447
2015-10-24 13:41:22.584975, 444
2015-10-24 13:41:22.585156, 445
2015-10-24 13:41:22.585310, 450
2015-10-24 13:41:22.600806, 454
2015-10-24 13:41:22.600982, 453
2015-10-24 13:41:22.601135, 454
2015-10-24 13:41:22.617021, 460
2015-10-24 13:41:22.617201, 463
2015-10-24 13:41:22.617356, 463
2015-10-24 13:41:22.632897, 463
2015-10-24 13:41:22.633078, 466
2015-10-24 13:41:22.633230, 468
2015-10-24 13:41:22.649004, 469
2015-10-24 13:41:22.649187, 470
2015-10-24 13:41:22.649341, 473
2015-10-24 13:41:22.664864, 473
2015-10-24 13:41:22.665046, 469
2015-10-24 13:41:22.665198, 468
2015-10-24 13:41:22.680902, 471
2015-10-24 13:41:22.681322, 473
2015-10-24 13:41:22.681501, 473
2015-10-24 13:41:22.696811, 473
2015-10-24 13:41:22.697059, 472
2015-10-24 13:41:22.697215, 470
2015-10-24 13:41:22.712923, 467
2015-10-24 13:41:22.713317, 470
2015-10-24 13:41:22.713500, 471
2015-10-24 13:41:22.713645, 470
2015-10-24 13:41:22.728974, 470
2015-10-24 13:41:22.729151, 470
2015-10-24 13:41:22.729305, 467
2015-10-24 13:41:22.744952, 465
2015-10-24 13:41:22.745128, 466
2015-10-24 13:41:22.745284, 469
2015-10-24 13:41:22.761098, 470
2015-10-24 13:41:22.761365, 468
2015-10-24 13:41:22.761531, 467
2015-10-24 13:41:22.776948, 468
2015-10-24 13:41:22.777126, 466
2015-10-24 13:41:22.777284, 468
2015-10-24 13:41:22.792916, 470
2015-10-24 13:41:22.793091, 470
2015-10-24 13:41:22.793241, 466
2015-10-24 13:41:22.808921, 465
2015-10-24 13:41:22.809095, 469
2015-10-24 13:41:22.809248, 474
2015-10-24 13:41:22.824876, 472
2015-10-24 13:41:22.825056, 470
2015-10-24 13:41:22.825208, 474
2015-10-24 13:41:22.840870, 477
2015-10-24 13:41:22.841043, 478
2015-10-24 13:41:22.841191, 478
2015-10-24 13:41:22.856875, 482
2015-10-24 13:41:22.857052, 485
2015-10-24 13:41:22.857210, 483
2015-10-24 13:41:22.872823, 481
2015-10-24 13:41:22.873006, 485
2015-10-24 13:41:22.873159, 487
2015-10-24 13:41:22.888823, 489
2015-10-24 13:41:22.889010, 492
2015-10-24 13:41:22.889160, 497
2015-10-24 13:41:22.904813, 495
2015-10-24 13:41:22.904999, 488
2015-10-24 13:41:22.905156, 483
2015-10-24 13:41:22.920730, 477
2015-10-24 13:41:22.920979, 472
2015-10-24 13:41:22.921131, 473
2015-10-24 13:41:22.936731, 475
2015-10-24 13:41:22.936979, 478
2015-10-24 13:41:22.937136, 481
2015-10-24 13:41:22.952705, 484
2015-10-24 13:41:22.952956, 484
2015-10-24 13:41:22.953110, 484
2015-10-24 13:41:22.953257, 480
2015-10-24 13:41:22.968732, 481
2015-10-24 13:41:22.968909, 493
2015-10-24 13:41:22.969061, 498
2015-10-24 13:41:22.984936, 507
2015-10-24 13:41:22.985116, 550
2015-10-24 13:41:22.985271, 622
2015-10-24 13:41:23.000868, 705
2015-10-24 13:41:23.001039, 769
2015-10-24 13:41:23.001191, 769
2015-10-24 13:41:23.016842, 738
2015-10-24 13:41:23.017017, 620
2015-10-24 13:41:23.017171, 438
2015-10-24 13:41:23.032836, 364
2015-10-24 13:41:23.033087, 381
2015-10-24 13:41:23.033265, 408
2015-10-24 13:41:23.048932, 442
2015-10-24 13:41:23.049186, 476
2015-10-24 13:41:23.049355, 492
2015-10-24 13:41:23.064857, 491
2015-10-24 13:41:23.065038, 484
2015-10-24 13:41:23.065189, 483
2015-10-24 13:41:23.080797, 488
2015-10-24 13:41:23.080978, 495
2015-10-24 13:41:23.081132, 497
2015-10-24 13:41:23.097052, 501
2015-10-24 13:41:23.097578, 504
2015-10-24 13:41:23.097758, 507
2015-10-24 13:41:23.112809, 511
2015-10-24 13:41:23.112997, 515
2015-10-24 13:41:23.113151, 518
2015-10-24 13:41:23.128746, 519
2015-10-24 13:41:23.128930, 522
2015-10-24 13:41:23.129084, 528
2015-10-24 13:41:23.144831, 531
2015-10-24 13:41:23.145020, 533
2015-10-24 13:41:23.145174, 536
2015-10-24 13:41:23.160739, 542
2015-10-24 13:41:23.160994, 552
2015-10-24 13:41:23.161148, 559
2015-10-24 13:41:23.176653, 566
2015-10-24 13:41:23.176902, 573
2015-10-24 13:41:23.177060, 578
2015-10-24 13:41:23.192634, 582
2015-10-24 13:41:23.192885, 589
2015-10-24 13:41:23.193044, 593
2015-10-24 13:41:23.208627, 591
2015-10-24 13:41:23.208882, 590
2015-10-24 13:41:23.209039, 589
2015-10-24 13:41:23.209190, 585
2015-10-24 13:41:23.224801, 576
2015-10-24 13:41:23.224979, 566
2015-10-24 13:41:23.225134, 559
2015-10-24 13:41:23.240816, 548
2015-10-24 13:41:23.240991, 535
2015-10-24 13:41:23.241143, 519
2015-10-24 13:41:23.256776, 505
2015-10-24 13:41:23.256953, 492
2015-10-24 13:41:23.257105, 479
2015-10-24 13:41:23.272753, 471
2015-10-24 13:41:23.272934, 465
2015-10-24 13:41:23.273085, 459
2015-10-24 13:41:23.288874, 451
2015-10-24 13:41:23.289053, 448
2015-10-24 13:41:23.289208, 447
2015-10-24 13:41:23.304760, 449
2015-10-24 13:41:23.304939, 449
2015-10-24 13:41:23.305093, 448
2015-10-24 13:41:23.320697, 451
2015-10-24 13:41:23.320880, 453
2015-10-24 13:41:23.321033, 456
2015-10-24 13:41:23.336694, 461
2015-10-24 13:41:23.336872, 465
2015-10-24 13:41:23.337026, 467
2015-10-24 13:41:23.352552, 468
2015-10-24 13:41:23.352731, 473
2015-10-24 13:41:23.352885, 479
2015-10-24 13:41:23.368661, 482
2015-10-24 13:41:23.368845, 481
2015-10-24 13:41:23.369000, 483
2015-10-24 13:41:23.384531, 489
2015-10-24 13:41:23.384716, 492
2015-10-24 13:41:23.384873, 499
2015-10-24 13:41:23.400652, 503
2015-10-24 13:41:23.400836, 505
2015-10-24 13:41:23.400991, 504
2015-10-24 13:41:23.416620, 506
2015-10-24 13:41:23.416866, 508
2015-10-24 13:41:23.417046, 508
2015-10-24 13:41:23.432551, 508
2015-10-24 13:41:23.432801, 508
2015-10-24 13:41:23.432955, 512
2015-10-24 13:41:23.448560, 513
2015-10-24 13:41:23.448808, 512
2015-10-24 13:41:23.448965, 513
2015-10-24 13:41:23.449118, 514
2015-10-24 13:41:23.464555, 514
2015-10-24 13:41:23.464733, 512
2015-10-24 13:41:23.464885, 514
2015-10-24 13:41:23.480703, 513
2015-10-24 13:41:23.480883, 511
2015-10-24 13:41:23.481037, 509
2015-10-24 13:41:23.496702, 512
2015-10-24 13:41:23.496877, 512
2015-10-24 13:41:23.497030, 510
2015-10-24 13:41:23.512781, 509
2015-10-24 13:41:23.512844, 512
2015-10-24 13:41:23.512896, 514
2015-10-24 13:41:23.528522, 516
2015-10-24 13:41:23.528698, 514
2015-10-24 13:41:23.528848, 514
2015-10-24 13:41:23.545086, 514
2015-10-24 13:41:23.545238, 513
2015-10-24 13:41:23.545338, 513
2015-10-24 13:41:23.560346, 513
2015-10-24 13:41:23.560523, 508
2015-10-24 13:41:23.560624, 505
2015-10-24 13:41:23.576624, 507
2015-10-24 13:41:23.576800, 511
2015-10-24 13:41:23.576956, 511
2015-10-24 13:41:23.592646, 509
2015-10-24 13:41:23.592827, 510
2015-10-24 13:41:23.592983, 510
2015-10-24 13:41:23.608578, 502
2015-10-24 13:41:23.608758, 492
2015-10-24 13:41:23.608911, 485
2015-10-24 13:41:23.624620, 482
2015-10-24 13:41:23.624819, 483
2015-10-24 13:41:23.624970, 485
2015-10-24 13:41:23.640574, 486
2015-10-24 13:41:23.640759, 484
2015-10-24 13:41:23.640910, 481
2015-10-24 13:41:23.656477, 482
2015-10-24 13:41:23.656724, 485
2015-10-24 13:41:23.656879, 485
2015-10-24 13:41:23.672552, 490
2015-10-24 13:41:23.672795, 502
2015-10-24 13:41:23.672951, 504
2015-10-24 13:41:23.688446, 523
2015-10-24 13:41:23.688696, 582
2015-10-24 13:41:23.688853, 656
2015-10-24 13:41:23.689005, 743
2015-10-24 13:41:23.704616, 797
2015-10-24 13:41:23.704794, 777
2015-10-24 13:41:23.704946, 724
2015-10-24 13:41:23.720552, 575
2015-10-24 13:41:23.720731, 407
2015-10-24 13:41:23.720883, 368
2015-10-24 13:41:23.736636, 392
2015-10-24 13:41:23.736816, 422
2015-10-24 13:41:23.736970, 458
2015-10-24 13:41:23.752569, 484
2015-10-24 13:41:23.752746, 492
2015-10-24 13:41:23.752911, 490
2015-10-24 13:41:23.768581, 487
2015-10-24 13:41:23.768757, 490
2015-10-24 13:41:23.768909, 495
2015-10-24 13:41:23.784579, 499
2015-10-24 13:41:23.784758, 502
2015-10-24 13:41:23.784913, 506
2015-10-24 13:41:23.800448, 511
2015-10-24 13:41:23.800630, 513
2015-10-24 13:41:23.800781, 515
2015-10-24 13:41:23.816553, 520
2015-10-24 13:41:23.816733, 525
2015-10-24 13:41:23.816888, 530
2015-10-24 13:41:23.832527, 535
2015-10-24 13:41:23.832704, 543
2015-10-24 13:41:23.832859, 549
2015-10-24 13:41:23.848586, 551
2015-10-24 13:41:23.848866, 556
2015-10-24 13:41:23.849048, 564
2015-10-24 13:41:23.864499, 573
2015-10-24 13:41:23.864690, 578
2015-10-24 13:41:23.864845, 587
2015-10-24 13:41:23.880638, 597
2015-10-24 13:41:23.880948, 603
2015-10-24 13:41:23.881120, 607
2015-10-24 13:41:23.896383, 612
2015-10-24 13:41:23.896635, 616
2015-10-24 13:41:23.896791, 616
2015-10-24 13:41:23.912381, 611
2015-10-24 13:41:23.912633, 607
2015-10-24 13:41:23.912788, 604
2015-10-24 13:41:23.928449, 596
2015-10-24 13:41:23.928739, 585
2015-10-24 13:41:23.928928, 574
2015-10-24 13:41:23.929062, 560
2015-10-24 13:41:23.944409, 543
2015-10-24 13:41:23.944585, 527
2015-10-24 13:41:23.944741, 512
2015-10-24 13:41:23.960768, 499
2015-10-24 13:41:23.961002, 485
2015-10-24 13:41:23.961164, 474
2015-10-24 13:41:23.976583, 468
2015-10-24 13:41:23.976757, 464
2015-10-24 13:41:23.976905, 459
2015-10-24 13:41:23.992530, 455
2015-10-24 13:41:23.992711, 452
2015-10-24 13:41:23.992866, 450
2015-10-24 13:41:24.008497, 449
2015-10-24 13:41:24.008677, 449
2015-10-24 13:41:24.008836, 451
2015-10-24 13:41:24.024503, 451
2015-10-24 13:41:24.024682, 450
2015-10-24 13:41:24.024836, 452
2015-10-24 13:41:24.040496, 454
2015-10-24 13:41:24.040675, 455
2015-10-24 13:41:24.040828, 455
2015-10-24 13:41:24.056551, 459
2015-10-24 13:41:24.056737, 463
2015-10-24 13:41:24.056898, 464
2015-10-24 13:41:24.072446, 465
2015-10-24 13:41:24.072624, 467
2015-10-24 13:41:24.072774, 471
2015-10-24 13:41:24.088441, 475
2015-10-24 13:41:24.088618, 477
2015-10-24 13:41:24.088775, 478
2015-10-24 13:41:24.104468, 478
2015-10-24 13:41:24.104741, 481
2015-10-24 13:41:24.105056, 482
2015-10-24 13:41:24.120106, 483
2015-10-24 13:41:24.120229, 484
2015-10-24 13:41:24.120327, 483
2015-10-24 13:41:24.136176, 482
2015-10-24 13:41:24.136302, 483
2015-10-24 13:41:24.136399, 483
2015-10-24 13:41:24.152286, 480
2015-10-24 13:41:24.152539, 481
2015-10-24 13:41:24.152696, 482
2015-10-24 13:41:24.168278, 480
2015-10-24 13:41:24.168535, 476
2015-10-24 13:41:24.168696, 476
2015-10-24 13:41:24.184236, 478
2015-10-24 13:41:24.184573, 476
2015-10-24 13:41:24.184791, 475
2015-10-24 13:41:24.184898, 477
2015-10-24 13:41:24.200417, 480
2015-10-24 13:41:24.200588, 478
2015-10-24 13:41:24.200735, 477
2015-10-24 13:41:24.216273, 476
2015-10-24 13:41:24.216448, 476
2015-10-24 13:41:24.216602, 475
2015-10-24 13:41:24.232506, 478
2015-10-24 13:41:24.232689, 482
2015-10-24 13:41:24.232844, 484
2015-10-24 13:41:24.248408, 482
2015-10-24 13:41:24.248587, 482
2015-10-24 13:41:24.248740, 485
2015-10-24 13:41:24.264530, 485
2015-10-24 13:41:24.264797, 484
2015-10-24 13:41:24.264960, 486
2015-10-24 13:41:24.280384, 489
2015-10-24 13:41:24.280561, 488
2015-10-24 13:41:24.280713, 487
2015-10-24 13:41:24.296526, 491
2015-10-24 13:41:24.296802, 496
2015-10-24 13:41:24.296961, 498
2015-10-24 13:41:24.312545, 499
2015-10-24 13:41:24.312783, 500
2015-10-24 13:41:24.312907, 499
2015-10-24 13:41:24.328361, 492
2015-10-24 13:41:24.328549, 483
2015-10-24 13:41:24.328709, 477
2015-10-24 13:41:24.344392, 475
2015-10-24 13:41:24.344670, 473
2015-10-24 13:41:24.344857, 475
2015-10-24 13:41:24.360254, 476
2015-10-24 13:41:24.360442, 476
2015-10-24 13:41:24.360598, 477
2015-10-24 13:41:24.376256, 478
2015-10-24 13:41:24.376441, 479
2015-10-24 13:41:24.376596, 478
2015-10-24 13:41:24.392157, 481
2015-10-24 13:41:24.392404, 492
2015-10-24 13:41:24.392560, 495
2015-10-24 13:41:24.408144, 525
2015-10-24 13:41:24.408395, 599
2015-10-24 13:41:24.408551, 678
2015-10-24 13:41:24.424138, 769
2015-10-24 13:41:24.424387, 818
2015-10-24 13:41:24.424543, 789
2015-10-24 13:41:24.424693, 718
2015-10-24 13:41:24.440348, 541
2015-10-24 13:41:24.440527, 383
2015-10-24 13:41:24.440685, 359
2015-10-24 13:41:24.456324, 389
2015-10-24 13:41:24.456502, 430
2015-10-24 13:41:24.456654, 468
2015-10-24 13:41:24.472354, 484
2015-10-24 13:41:24.472539, 485
2015-10-24 13:41:24.472699, 483
2015-10-24 13:41:24.488474, 481
2015-10-24 13:41:24.488670, 484
2015-10-24 13:41:24.488824, 488
2015-10-24 13:41:24.504263, 492
2015-10-24 13:41:24.504442, 494
2015-10-24 13:41:24.504595, 498
2015-10-24 13:41:24.519898, 502
2015-10-24 13:41:24.519961, 505
2015-10-24 13:41:24.520007, 506
2015-10-24 13:41:24.536276, 510
2015-10-24 13:41:24.536456, 516
2015-10-24 13:41:24.536608, 520
2015-10-24 13:41:24.552071, 524
2015-10-24 13:41:24.552250, 529
2015-10-24 13:41:24.552402, 534
2015-10-24 13:41:24.568276, 539
2015-10-24 13:41:24.568458, 545
2015-10-24 13:41:24.568613, 553
2015-10-24 13:41:24.584183, 559
2015-10-24 13:41:24.584366, 565
2015-10-24 13:41:24.584519, 573
2015-10-24 13:41:24.600016, 582
2015-10-24 13:41:24.600194, 590
2015-10-24 13:41:24.600348, 596
2015-10-24 13:41:24.616166, 600
2015-10-24 13:41:24.616351, 605
2015-10-24 13:41:24.616504, 608
2015-10-24 13:41:24.632054, 605
2015-10-24 13:41:24.632375, 601
2015-10-24 13:41:24.632549, 598
2015-10-24 13:41:24.648083, 591
2015-10-24 13:41:24.648336, 581
2015-10-24 13:41:24.648494, 569
2015-10-24 13:41:24.664039, 558
2015-10-24 13:41:24.664288, 543
2015-10-24 13:41:24.664442, 524
2015-10-24 13:41:24.679948, 507
2015-10-24 13:41:24.680144, 491
2015-10-24 13:41:24.680299, 474
2015-10-24 13:41:24.680445, 457
2015-10-24 13:41:24.696286, 449
2015-10-24 13:41:24.696465, 446
2015-10-24 13:41:24.696622, 441
2015-10-24 13:41:24.711936, 440
2015-10-24 13:41:24.712111, 443
2015-10-24 13:41:24.712252, 443
2015-10-24 13:41:24.728193, 440
2015-10-24 13:41:24.728374, 440
2015-10-24 13:41:24.728526, 443
2015-10-24 13:41:24.744139, 444
2015-10-24 13:41:24.744317, 445
2015-10-24 13:41:24.744474, 446
2015-10-24 13:41:24.760252, 449
2015-10-24 13:41:24.760518, 451
2015-10-24 13:41:24.760682, 450
2015-10-24 13:41:24.776215, 453
2015-10-24 13:41:24.776394, 456
2015-10-24 13:41:24.776548, 457
2015-10-24 13:41:24.792091, 458
2015-10-24 13:41:24.792263, 461
2015-10-24 13:41:24.792414, 463
2015-10-24 13:41:24.808153, 465
2015-10-24 13:41:24.808335, 468
2015-10-24 13:41:24.808489, 472
2015-10-24 13:41:24.824149, 474
2015-10-24 13:41:24.824337, 474
2015-10-24 13:41:24.824497, 472
2015-10-24 13:41:24.840089, 475
2015-10-24 13:41:24.840271, 478
2015-10-24 13:41:24.840427, 476
2015-10-24 13:41:24.856081, 475
2015-10-24 13:41:24.856269, 476
2015-10-24 13:41:24.856421, 476
2015-10-24 13:41:24.872084, 477
2015-10-24 13:41:24.872269, 478
2015-10-24 13:41:24.872423, 479
2015-10-24 13:41:24.887999, 476
2015-10-24 13:41:24.888249, 474
2015-10-24 13:41:24.888407, 475
2015-10-24 13:41:24.903971, 477
2015-10-24 13:41:24.904221, 475
2015-10-24 13:41:24.904376, 474
2015-10-24 13:41:24.919971, 476
2015-10-24 13:41:24.920222, 478
2015-10-24 13:41:24.920472, 478
2015-10-24 13:41:24.920631, 480
2015-10-24 13:41:24.936136, 483
2015-10-24 13:41:24.936312, 485
2015-10-24 13:41:24.936463, 483
2015-10-24 13:41:24.952178, 484
2015-10-24 13:41:24.952357, 489
2015-10-24 13:41:24.952514, 491
2015-10-24 13:41:24.967970, 489
2015-10-24 13:41:24.968150, 491
2015-10-24 13:41:24.968304, 491
2015-10-24 13:41:24.984089, 490
2015-10-24 13:41:24.984270, 492
2015-10-24 13:41:24.984426, 497
2015-10-24 13:41:25.000092, 501
2015-10-24 13:41:25.000269, 499
2015-10-24 13:41:25.000423, 501
2015-10-24 13:41:25.015900, 502
2015-10-24 13:41:25.016072, 499
2015-10-24 13:41:25.016219, 490
2015-10-24 13:41:25.032098, 481
2015-10-24 13:41:25.032277, 478
2015-10-24 13:41:25.032429, 478
2015-10-24 13:41:25.048137, 479
2015-10-24 13:41:25.048412, 480
2015-10-24 13:41:25.048585, 480
2015-10-24 13:41:25.064096, 480
2015-10-24 13:41:25.064275, 479
2015-10-24 13:41:25.064431, 480
2015-10-24 13:41:25.080063, 482
2015-10-24 13:41:25.080244, 483
2015-10-24 13:41:25.080402, 491
2015-10-24 13:41:25.096132, 495
2015-10-24 13:41:25.096403, 511
2015-10-24 13:41:25.096579, 564
2015-10-24 13:41:25.112008, 647
2015-10-24 13:41:25.112192, 741
2015-10-24 13:41:25.112349, 818
2015-10-24 13:41:25.127993, 816
2015-10-24 13:41:25.128332, 763
2015-10-24 13:41:25.128533, 625
2015-10-24 13:41:25.143937, 432
2015-10-24 13:41:25.144190, 358
2015-10-24 13:41:25.144348, 373
2015-10-24 13:41:25.159928, 409
2015-10-24 13:41:25.160175, 452
2015-10-24 13:41:25.160330, 478
2015-10-24 13:41:25.160481, 484
2015-10-24 13:41:25.176076, 484
2015-10-24 13:41:25.176244, 484
2015-10-24 13:41:25.176398, 486
2015-10-24 13:41:25.192080, 488
2015-10-24 13:41:25.192258, 492
2015-10-24 13:41:25.192408, 496
2015-10-24 13:41:25.208113, 497
2015-10-24 13:41:25.208290, 498
2015-10-24 13:41:25.208444, 503
2015-10-24 13:41:25.224065, 508
2015-10-24 13:41:25.224244, 512
2015-10-24 13:41:25.224395, 517
2015-10-24 13:41:25.239994, 521
2015-10-24 13:41:25.240171, 525
2015-10-24 13:41:25.240326, 529
2015-10-24 13:41:25.255982, 535
2015-10-24 13:41:25.256156, 540
2015-10-24 13:41:25.256306, 546
2015-10-24 13:41:25.271954, 551
2015-10-24 13:41:25.272135, 560
2015-10-24 13:41:25.272291, 571
2015-10-24 13:41:25.287967, 580
2015-10-24 13:41:25.288146, 585
2015-10-24 13:41:25.288299, 593
2015-10-24 13:41:25.303831, 600
2015-10-24 13:41:25.304010, 608
2015-10-24 13:41:25.304161, 611
2015-10-24 13:41:25.319912, 613
2015-10-24 13:41:25.320092, 613
2015-10-24 13:41:25.320242, 609
2015-10-24 13:41:25.335942, 606
2015-10-24 13:41:25.336130, 604
2015-10-24 13:41:25.336286, 595
2015-10-24 13:41:25.351912, 582
2015-10-24 13:41:25.352097, 570
2015-10-24 13:41:25.352253, 557
2015-10-24 13:41:25.367814, 541
2015-10-24 13:41:25.368069, 520
2015-10-24 13:41:25.368227, 504
2015-10-24 13:41:25.383791, 491
2015-10-24 13:41:25.384041, 479
2015-10-24 13:41:25.384196, 469
2015-10-24 13:41:25.399799, 463
2015-10-24 13:41:25.400048, 457
2015-10-24 13:41:25.400205, 452
2015-10-24 13:41:25.400355, 449
2015-10-24 13:41:25.415960, 449
2015-10-24 13:41:25.416135, 451
2015-10-24 13:41:25.416288, 449
2015-10-24 13:41:25.431811, 448
2015-10-24 13:41:25.431983, 449
2015-10-24 13:41:25.432131, 450
2015-10-24 13:41:25.448023, 449
2015-10-24 13:41:25.448247, 451
2015-10-24 13:41:25.448354, 453
2015-10-24 13:41:25.463793, 452
2015-10-24 13:41:25.463968, 453
2015-10-24 13:41:25.464119, 456
2015-10-24 13:41:25.480066, 459
2015-10-24 13:41:25.480283, 462
2015-10-24 13:41:25.480389, 463
2015-10-24 13:41:25.495971, 465
2015-10-24 13:41:25.496148, 467
2015-10-24 13:41:25.496304, 468
2015-10-24 13:41:25.514955, 468
2015-10-24 13:41:25.515044, 473
2015-10-24 13:41:25.515113, 477
2015-10-24 13:41:25.527876, 476
2015-10-24 13:41:25.528072, 476
2015-10-24 13:41:25.528234, 477
2015-10-24 13:41:25.544064, 478
2015-10-24 13:41:25.544333, 477
2015-10-24 13:41:25.544567, 476
2015-10-24 13:41:25.559866, 477
2015-10-24 13:41:25.560048, 476
2015-10-24 13:41:25.560198, 475
2015-10-24 13:41:25.575842, 475
2015-10-24 13:41:25.576029, 477
2015-10-24 13:41:25.576180, 476
2015-10-24 13:41:25.591858, 473
2015-10-24 13:41:25.592046, 473
2015-10-24 13:41:25.592201, 473
2015-10-24 13:41:25.607903, 474
2015-10-24 13:41:25.608093, 472
2015-10-24 13:41:25.608248, 473
2015-10-24 13:41:25.623751, 475
2015-10-24 13:41:25.624002, 476
2015-10-24 13:41:25.624157, 478
2015-10-24 13:41:25.639720, 481
2015-10-24 13:41:25.639971, 486
2015-10-24 13:41:25.640126, 485
2015-10-24 13:41:25.655719, 484
2015-10-24 13:41:25.655968, 486
2015-10-24 13:41:25.656130, 489
2015-10-24 13:41:25.656280, 488
2015-10-24 13:41:25.671859, 490
2015-10-24 13:41:25.672030, 491
2015-10-24 13:41:25.672181, 486
2015-10-24 13:41:25.687867, 487
2015-10-24 13:41:25.688043, 491
2015-10-24 13:41:25.688197, 496
2015-10-24 13:41:25.703868, 497
2015-10-24 13:41:25.704045, 499
2015-10-24 13:41:25.704196, 501
2015-10-24 13:41:25.719842, 499
2015-10-24 13:41:25.720021, 494
2015-10-24 13:41:25.720173, 484
2015-10-24 13:41:25.735840, 477
2015-10-24 13:41:25.736016, 477
2015-10-24 13:41:25.736166, 477
2015-10-24 13:41:25.751812, 478
2015-10-24 13:41:25.751987, 480
2015-10-24 13:41:25.752140, 480
2015-10-24 13:41:25.767647, 479
2015-10-24 13:41:25.767830, 478
2015-10-24 13:41:25.767983, 481
2015-10-24 13:41:25.783857, 487
2015-10-24 13:41:25.784038, 494
2015-10-24 13:41:25.784192, 499
2015-10-24 13:41:25.799646, 505
2015-10-24 13:41:25.799825, 542
2015-10-24 13:41:25.799980, 615
2015-10-24 13:41:25.815741, 701
2015-10-24 13:41:25.815924, 785
2015-10-24 13:41:25.816076, 814
2015-10-24 13:41:25.831676, 781
2015-10-24 13:41:25.831861, 686
2015-10-24 13:41:25.832024, 497
2015-10-24 13:41:25.847586, 373
2015-10-24 13:41:25.847766, 369
2015-10-24 13:41:25.847921, 398
2015-10-24 13:41:25.863658, 435
2015-10-24 13:41:25.863881, 469
2015-10-24 13:41:25.864036, 485
2015-10-24 13:41:25.879466, 488
2015-10-24 13:41:25.879661, 490
2015-10-24 13:41:25.879800, 492
2015-10-24 13:41:25.895699, 492
2015-10-24 13:41:25.895987, 496
2015-10-24 13:41:25.896149, 501
2015-10-24 13:41:25.896302, 501
2015-10-24 13:41:25.911795, 504
2015-10-24 13:41:25.911974, 509
2015-10-24 13:41:25.912130, 513
2015-10-24 13:41:25.927789, 516
2015-10-24 13:41:25.927968, 518
2015-10-24 13:41:25.928123, 523
2015-10-24 13:41:25.943789, 526
2015-10-24 13:41:25.943963, 528
2015-10-24 13:41:25.944115, 533
2015-10-24 13:41:25.959735, 538
2015-10-24 13:41:25.959916, 544
2015-10-24 13:41:25.960065, 550
2015-10-24 13:41:25.975772, 557
2015-10-24 13:41:25.975950, 565
2015-10-24 13:41:25.976101, 574
2015-10-24 13:41:25.991494, 581
2015-10-24 13:41:25.991589, 589
2015-10-24 13:41:25.991670, 598
2015-10-24 13:41:26.007744, 605
2015-10-24 13:41:26.007927, 608
2015-10-24 13:41:26.008085, 611
2015-10-24 13:41:26.023723, 612
2015-10-24 13:41:26.023900, 609
2015-10-24 13:41:26.024054, 605
2015-10-24 13:41:26.039691, 599
2015-10-24 13:41:26.039871, 591
2015-10-24 13:41:26.040026, 580
2015-10-24 13:41:26.055683, 568
2015-10-24 13:41:26.055869, 556
2015-10-24 13:41:26.056021, 541
2015-10-24 13:41:26.071658, 523
2015-10-24 13:41:26.071841, 506
2015-10-24 13:41:26.071996, 493
2015-10-24 13:41:26.087662, 482
2015-10-24 13:41:26.087846, 470
2015-10-24 13:41:26.088000, 461
2015-10-24 13:41:26.103641, 456
2015-10-24 13:41:26.103886, 451
2015-10-24 13:41:26.104065, 447
2015-10-24 13:41:26.119541, 449
2015-10-24 13:41:26.119793, 451
2015-10-24 13:41:26.119950, 450
2015-10-24 13:41:26.135548, 448
2015-10-24 13:41:26.135794, 445
2015-10-24 13:41:26.135950, 447
2015-10-24 13:41:26.136099, 448
2015-10-24 13:41:26.151714, 450
2015-10-24 13:41:26.151891, 452
2015-10-24 13:41:26.152045, 455
2015-10-24 13:41:26.167718, 457
2015-10-24 13:41:26.167893, 457
2015-10-24 13:41:26.168044, 459
2015-10-24 13:41:26.183567, 464
2015-10-24 13:41:26.183740, 467
2015-10-24 13:41:26.183890, 467
2015-10-24 13:41:26.199682, 469
2015-10-24 13:41:26.199856, 473
2015-10-24 13:41:26.200008, 474
2015-10-24 13:41:26.215512, 475
2015-10-24 13:41:26.215710, 475
2015-10-24 13:41:26.215849, 475
2015-10-24 13:41:26.231715, 476
2015-10-24 13:41:26.231895, 476
2015-10-24 13:41:26.232052, 478
2015-10-24 13:41:26.247637, 478
2015-10-24 13:41:26.247814, 477
2015-10-24 13:41:26.247967, 477
2015-10-24 13:41:26.263768, 479
2015-10-24 13:41:26.264039, 479
2015-10-24 13:41:26.264208, 475
2015-10-24 13:41:26.279702, 473
2015-10-24 13:41:26.279879, 474
2015-10-24 13:41:26.280033, 474
2015-10-24 13:41:26.295523, 474
2015-10-24 13:41:26.295804, 474
2015-10-24 13:41:26.295936, 473
2015-10-24 13:41:26.311546, 473
2015-10-24 13:41:26.311725, 473
2015-10-24 13:41:26.311872, 476
2015-10-24 13:41:26.327554, 478
2015-10-24 13:41:26.327737, 480
2015-10-24 13:41:26.327892, 481
2015-10-24 13:41:26.343615, 481
2015-10-24 13:41:26.343874, 482
2015-10-24 13:41:26.343996, 483
2015-10-24 13:41:26.359428, 485
2015-10-24 13:41:26.359673, 486
2015-10-24 13:41:26.359827, 481
2015-10-24 13:41:26.375437, 479
2015-10-24 13:41:26.375687, 483
2015-10-24 13:41:26.375840, 490
2015-10-24 13:41:26.391427, 492
2015-10-24 13:41:26.391674, 492
2015-10-24 13:41:26.391824, 492
2015-10-24 13:41:26.391971, 489
2015-10-24 13:41:26.407600, 482
2015-10-24 13:41:26.407776, 473
2015-10-24 13:41:26.407928, 469
2015-10-24 13:41:26.423664, 468
2015-10-24 13:41:26.423840, 466
2015-10-24 13:41:26.423993, 466
2015-10-24 13:41:26.439458, 468
2015-10-24 13:41:26.439632, 467
2015-10-24 13:41:26.439784, 465
2015-10-24 13:41:26.455554, 466
2015-10-24 13:41:26.455732, 468
2015-10-24 13:41:26.455885, 467
2015-10-24 13:41:26.471560, 473
2015-10-24 13:41:26.471739, 487
2015-10-24 13:41:26.471895, 493
2015-10-24 13:41:26.487415, 520
2015-10-24 13:41:26.487593, 586
2015-10-24 13:41:26.487746, 663
2015-10-24 13:41:26.503532, 746
2015-10-24 13:41:26.503708, 785
2015-10-24 13:41:26.503860, 759
2015-10-24 13:41:26.519361, 684
2015-10-24 13:41:26.519541, 510
2015-10-24 13:41:26.519696, 366
2015-10-24 13:41:26.535571, 351
2015-10-24 13:41:26.535751, 379
2015-10-24 13:41:26.535907, 416
2015-10-24 13:41:26.551452, 452
2015-10-24 13:41:26.551631, 470
2015-10-24 13:41:26.551787, 476
2015-10-24 13:41:26.567467, 474
2015-10-24 13:41:26.567652, 473
2015-10-24 13:41:26.567806, 476
2015-10-24 13:41:26.583483, 481
2015-10-24 13:41:26.583672, 484
2015-10-24 13:41:26.583827, 487
2015-10-24 13:41:26.599268, 490
2015-10-24 13:41:26.599471, 494
2015-10-24 13:41:26.599628, 495
2015-10-24 13:41:26.615363, 499
2015-10-24 13:41:26.615614, 504
2015-10-24 13:41:26.615771, 509
2015-10-24 13:41:26.631415, 512
2015-10-24 13:41:26.631765, 516
2015-10-24 13:41:26.631956, 520
2015-10-24 13:41:26.632115, 528
2015-10-24 13:41:26.647534, 534
2015-10-24 13:41:26.647716, 538
2015-10-24 13:41:26.647869, 545
2015-10-24 13:41:26.663505, 554
2015-10-24 13:41:26.663683, 559
2015-10-24 13:41:26.663836, 566
2015-10-24 13:41:26.679615, 576
2015-10-24 13:41:26.679868, 585
2015-10-24 13:41:26.680032, 588
2015-10-24 13:41:26.695454, 590
2015-10-24 13:41:26.695634, 596
2015-10-24 13:41:26.695791, 599
2015-10-24 13:41:26.711649, 595
2015-10-24 13:41:26.711904, 590
2015-10-24 13:41:26.712073, 587
2015-10-24 13:41:26.727458, 580
2015-10-24 13:41:26.727635, 567
2015-10-24 13:41:26.727790, 554
2015-10-24 13:41:26.743463, 542
2015-10-24 13:41:26.743642, 527
2015-10-24 13:41:26.743796, 509
2015-10-24 13:41:26.759408, 495
2015-10-24 13:41:26.759590, 482
2015-10-24 13:41:26.759741, 469
2015-10-24 13:41:26.775413, 458
2015-10-24 13:41:26.775589, 451
2015-10-24 13:41:26.775741, 446
2015-10-24 13:41:26.791094, 440
2015-10-24 13:41:26.791211, 439
2015-10-24 13:41:26.791292, 440
2015-10-24 13:41:26.807136, 440
2015-10-24 13:41:26.807336, 437
2015-10-24 13:41:26.807443, 436
2015-10-24 13:41:26.823124, 436
2015-10-24 13:41:26.823306, 437
2015-10-24 13:41:26.823467, 439
2015-10-24 13:41:26.838909, 442
2015-10-24 13:41:26.838971, 445
2015-10-24 13:41:26.839017, 447
2015-10-24 13:41:26.854933, 448
2015-10-24 13:41:26.855001, 450
2015-10-24 13:41:26.855048, 455
2015-10-24 13:41:26.870950, 457
2015-10-24 13:41:26.871022, 458
2015-10-24 13:41:26.871068, 461
2015-10-24 13:41:26.871113, 463
2015-10-24 13:41:26.887125, 464
2015-10-24 13:41:26.887203, 467
2015-10-24 13:41:26.887263, 471
2015-10-24 13:41:26.903381, 475
2015-10-24 13:41:26.903558, 475
2015-10-24 13:41:26.903712, 474
2015-10-24 13:41:26.919602, 476
2015-10-24 13:41:26.919786, 476
2015-10-24 13:41:26.919903, 476
2015-10-24 13:41:26.935245, 478
2015-10-24 13:41:26.935424, 479
2015-10-24 13:41:26.935575, 476
2015-10-24 13:41:26.951390, 474
2015-10-24 13:41:26.951615, 474
2015-10-24 13:41:26.951723, 475
2015-10-24 13:41:26.967331, 474
2015-10-24 13:41:26.967513, 472
2015-10-24 13:41:26.967690, 472
2015-10-24 13:41:26.983410, 473
2015-10-24 13:41:26.983595, 474
2015-10-24 13:41:26.983751, 473
2015-10-24 13:41:26.999329, 475
2015-10-24 13:41:26.999505, 474
2015-10-24 13:41:26.999659, 473
2015-10-24 13:41:27.015431, 475
2015-10-24 13:41:27.015731, 475
2015-10-24 13:41:27.015902, 477
2015-10-24 13:41:27.031383, 479
2015-10-24 13:41:27.031568, 483
2015-10-24 13:41:27.031725, 485
2015-10-24 13:41:27.047280, 484
2015-10-24 13:41:27.047461, 485
2015-10-24 13:41:27.047614, 486
2015-10-24 13:41:27.063312, 489
2015-10-24 13:41:27.063504, 490
2015-10-24 13:41:27.063660, 490
2015-10-24 13:41:27.079282, 489
2015-10-24 13:41:27.079466, 489
2015-10-24 13:41:27.079620, 492
2015-10-24 13:41:27.095037, 494
2015-10-24 13:41:27.095188, 500
2015-10-24 13:41:27.095305, 504
2015-10-24 13:41:27.110934, 504
2015-10-24 13:41:27.111106, 500
2015-10-24 13:41:27.111206, 492
2015-10-24 13:41:27.126871, 484
2015-10-24 13:41:27.127070, 476
2015-10-24 13:41:27.127173, 475
2015-10-24 13:41:27.127268, 477
2015-10-24 13:41:27.143339, 480
2015-10-24 13:41:27.143520, 480
2015-10-24 13:41:27.143674, 478
2015-10-24 13:41:27.159338, 480
2015-10-24 13:41:27.159518, 481
2015-10-24 13:41:27.159678, 479
2015-10-24 13:41:27.175306, 480
2015-10-24 13:41:27.175485, 489
2015-10-24 13:41:27.175641, 499
2015-10-24 13:41:27.191290, 500
2015-10-24 13:41:27.191467, 522
2015-10-24 13:41:27.191622, 585
2015-10-24 13:41:27.207282, 665
2015-10-24 13:41:27.207462, 758
2015-10-24 13:41:27.207618, 824
2015-10-24 13:41:27.223259, 808
2015-10-24 13:41:27.223434, 747
2015-10-24 13:41:27.223589, 585
2015-10-24 13:41:27.239285, 405
2015-10-24 13:41:27.239469, 360
2015-10-24 13:41:27.239627, 382
2015-10-24 13:41:27.254911, 420
2015-10-24 13:41:27.255030, 462
2015-10-24 13:41:27.255128, 484
2015-10-24 13:41:27.271236, 485
2015-10-24 13:41:27.271416, 484
2015-10-24 13:41:27.271571, 487
2015-10-24 13:41:27.287150, 490
2015-10-24 13:41:27.287334, 492
2015-10-24 13:41:27.287491, 495
2015-10-24 13:41:27.303034, 500
2015-10-24 13:41:27.303215, 503
2015-10-24 13:41:27.303382, 505
2015-10-24 13:41:27.319181, 508
2015-10-24 13:41:27.319363, 513
2015-10-24 13:41:27.319518, 515
2015-10-24 13:41:27.335013, 516
2015-10-24 13:41:27.335268, 521
2015-10-24 13:41:27.335432, 529
2015-10-24 13:41:27.351089, 534
2015-10-24 13:41:27.351336, 538
2015-10-24 13:41:27.351490, 541
2015-10-24 13:41:27.367143, 547
2015-10-24 13:41:27.367391, 555
2015-10-24 13:41:27.367552, 563
2015-10-24 13:41:27.367708, 573
2015-10-24 13:41:27.383233, 582
2015-10-24 13:41:27.383407, 587
2015-10-24 13:41:27.383556, 593
2015-10-24 13:41:27.399229, 601
2015-10-24 13:41:27.399404, 608
2015-10-24 13:41:27.399554, 610
2015-10-24 13:41:27.415179, 611
2015-10-24 13:41:27.415360, 611
2015-10-24 13:41:27.415517, 607
2015-10-24 13:41:27.431331, 601
2015-10-24 13:41:27.431604, 595
2015-10-24 13:41:27.431833, 589
2015-10-24 13:41:27.447060, 580
2015-10-24 13:41:27.447237, 564
2015-10-24 13:41:27.447392, 547
2015-10-24 13:41:27.463268, 531
2015-10-24 13:41:27.463447, 516
2015-10-24 13:41:27.463599, 502
2015-10-24 13:41:27.479158, 488
2015-10-24 13:41:27.479335, 477
2015-10-24 13:41:27.479490, 466
2015-10-24 13:41:27.495155, 459
2015-10-24 13:41:27.495333, 455
2015-10-24 13:41:27.495486, 454
2015-10-24 13:41:27.510934, 451
2015-10-24 13:41:27.511059, 449
2015-10-24 13:41:27.511158, 449
2015-10-24 13:41:27.527106, 450
2015-10-24 13:41:27.527293, 450
2015-10-24 13:41:27.527447, 450
2015-10-24 13:41:27.543094, 449
2015-10-24 13:41:27.543277, 451
2015-10-24 13:41:27.543431, 453
2015-10-24 13:41:27.559106, 453
2015-10-24 13:41:27.559290, 456
2015-10-24 13:41:27.559443, 458
2015-10-24 13:41:27.575045, 460
2015-10-24 13:41:27.575295, 463
2015-10-24 13:41:27.575453, 467
2015-10-24 13:41:27.590985, 468
2015-10-24 13:41:27.591234, 467
2015-10-24 13:41:27.591387, 470
2015-10-24 13:41:27.607048, 474
2015-10-24 13:41:27.607297, 473
2015-10-24 13:41:27.607457, 472
2015-10-24 13:41:27.607613, 475
2015-10-24 13:41:27.623147, 480
2015-10-24 13:41:27.623326, 481
2015-10-24 13:41:27.623482, 480
2015-10-24 13:41:27.639146, 481
2015-10-24 13:41:27.639321, 482
2015-10-24 13:41:27.639475, 481
2015-10-24 13:41:27.655166, 480
2015-10-24 13:41:27.655344, 481
2015-10-24 13:41:27.655497, 482
2015-10-24 13:41:27.671103, 479
2015-10-24 13:41:27.671280, 480
2015-10-24 13:41:27.671435, 481
2015-10-24 13:41:27.687107, 481
2015-10-24 13:41:27.687284, 479
2015-10-24 13:41:27.687435, 478
2015-10-24 13:41:27.703106, 480
2015-10-24 13:41:27.703283, 478
2015-10-24 13:41:27.703437, 476
2015-10-24 13:41:27.718932, 478
2015-10-24 13:41:27.719112, 482
2015-10-24 13:41:27.719266, 481
2015-10-24 13:41:27.735059, 481
2015-10-24 13:41:27.735235, 481
2015-10-24 13:41:27.735391, 481
2015-10-24 13:41:27.751051, 480
2015-10-24 13:41:27.751233, 480
2015-10-24 13:41:27.751389, 482
2015-10-24 13:41:27.766997, 484
2015-10-24 13:41:27.767186, 483
2015-10-24 13:41:27.767339, 486
2015-10-24 13:41:27.783030, 489
2015-10-24 13:41:27.783217, 491
2015-10-24 13:41:27.783369, 490
2015-10-24 13:41:27.799118, 489
2015-10-24 13:41:27.799449, 491
2015-10-24 13:41:27.799617, 493
2015-10-24 13:41:27.814911, 490
2015-10-24 13:41:27.815164, 492
2015-10-24 13:41:27.815321, 497
2015-10-24 13:41:27.830912, 501
2015-10-24 13:41:27.831164, 500
2015-10-24 13:41:27.831320, 501
2015-10-24 13:41:27.847007, 505
2015-10-24 13:41:27.847347, 503
2015-10-24 13:41:27.847543, 496
2015-10-24 13:41:27.862970, 491
2015-10-24 13:41:27.863235, 485
2015-10-24 13:41:27.863399, 482
2015-10-24 13:41:27.863556, 478
2015-10-24 13:41:27.879195, 479
2015-10-24 13:41:27.879460, 480
2015-10-24 13:41:27.879627, 481
2015-10-24 13:41:27.895159, 482
2015-10-24 13:41:27.895336, 482
2015-10-24 13:41:27.895513, 482
2015-10-24 13:41:27.911190, 479
2015-10-24 13:41:27.911370, 482
2015-10-24 13:41:27.911521, 496
2015-10-24 13:41:27.927140, 499
2015-10-24 13:41:27.927410, 513
2015-10-24 13:41:27.927572, 570
2015-10-24 13:41:27.943035, 658
2015-10-24 13:41:27.943219, 753
2015-10-24 13:41:27.943382, 826
2015-10-24 13:41:27.959039, 821
2015-10-24 13:41:27.959222, 769
2015-10-24 13:41:27.959382, 620
2015-10-24 13:41:27.975004, 426
2015-10-24 13:41:27.975188, 361
2015-10-24 13:41:27.975348, 381
2015-10-24 13:41:27.990998, 415
2015-10-24 13:41:27.991183, 455
2015-10-24 13:41:27.991341, 481
2015-10-24 13:41:28.007032, 487
2015-10-24 13:41:28.007210, 484
2015-10-24 13:41:28.007366, 485
2015-10-24 13:41:28.023057, 489
2015-10-24 13:41:28.023242, 493
2015-10-24 13:41:28.023400, 495
2015-10-24 13:41:28.039011, 497
2015-10-24 13:41:28.039195, 498
2015-10-24 13:41:28.039373, 501
2015-10-24 13:41:28.054990, 505
2015-10-24 13:41:28.055180, 510
2015-10-24 13:41:28.055331, 515
2015-10-24 13:41:28.070931, 516
2015-10-24 13:41:28.071178, 519
2015-10-24 13:41:28.071331, 525
2015-10-24 13:41:28.086885, 531
2015-10-24 13:41:28.087131, 533
2015-10-24 13:41:28.087288, 536
2015-10-24 13:41:28.102771, 543
2015-10-24 13:41:28.103026, 552
2015-10-24 13:41:28.103181, 559
2015-10-24 13:41:28.103336, 566
2015-10-24 13:41:28.119086, 576
2015-10-24 13:41:28.119263, 585
2015-10-24 13:41:28.119413, 589
2015-10-24 13:41:28.134869, 595
2015-10-24 13:41:28.135043, 603
2015-10-24 13:41:28.135195, 607
2015-10-24 13:41:28.151052, 607
2015-10-24 13:41:28.151228, 607
2015-10-24 13:41:28.151381, 606
2015-10-24 13:41:28.166960, 602
2015-10-24 13:41:28.167146, 595
2015-10-24 13:41:28.167302, 587
2015-10-24 13:41:28.182891, 577
2015-10-24 13:41:28.183070, 564
2015-10-24 13:41:28.183223, 550
2015-10-24 13:41:28.198919, 535
2015-10-24 13:41:28.199089, 519
2015-10-24 13:41:28.199242, 502
2015-10-24 13:41:28.214725, 487
2015-10-24 13:41:28.214905, 477
2015-10-24 13:41:28.215057, 470
2015-10-24 13:41:28.230841, 462
2015-10-24 13:41:28.231016, 453
2015-10-24 13:41:28.231169, 449
2015-10-24 13:41:28.246833, 449
2015-10-24 13:41:28.247005, 448
2015-10-24 13:41:28.247154, 446
2015-10-24 13:41:28.262924, 446
2015-10-24 13:41:28.263200, 444
2015-10-24 13:41:28.263386, 442
2015-10-24 13:41:28.278871, 443
2015-10-24 13:41:28.279060, 449
2015-10-24 13:41:28.279218, 451
2015-10-24 13:41:28.294882, 448
2015-10-24 13:41:28.295149, 449
2015-10-24 13:41:28.295341, 455
2015-10-24 13:41:28.310698, 459
2015-10-24 13:41:28.310951, 460
2015-10-24 13:41:28.311108, 461
2015-10-24 13:41:28.326698, 464
2015-10-24 13:41:28.326946, 464
2015-10-24 13:41:28.327102, 465
2015-10-24 13:41:28.342601, 468
2015-10-24 13:41:28.342799, 470
2015-10-24 13:41:28.342953, 471
2015-10-24 13:41:28.343101, 473
2015-10-24 13:41:28.358873, 474
2015-10-24 13:41:28.359046, 472
2015-10-24 13:41:28.359196, 472
2015-10-24 13:41:28.374833, 476
2015-10-24 13:41:28.375010, 479
2015-10-24 13:41:28.375174, 480
2015-10-24 13:41:28.390839, 478
2015-10-24 13:41:28.391013, 476
2015-10-24 13:41:28.391161, 477
2015-10-24 13:41:28.406928, 477
2015-10-24 13:41:28.407104, 475
2015-10-24 13:41:28.407257, 474
2015-10-24 13:41:28.422816, 476
2015-10-24 13:41:28.422991, 477
2015-10-24 13:41:28.423146, 475
2015-10-24 13:41:28.438875, 478
2015-10-24 13:41:28.439056, 479
2015-10-24 13:41:28.439206, 476
2015-10-24 13:41:28.454797, 475
2015-10-24 13:41:28.454975, 476
2015-10-24 13:41:28.455129, 477
2015-10-24 13:41:28.470797, 476
2015-10-24 13:41:28.470974, 476
2015-10-24 13:41:28.471126, 479
2015-10-24 13:41:28.486794, 479
2015-10-24 13:41:28.486972, 478
2015-10-24 13:41:28.487124, 479
2015-10-24 13:41:28.502745, 482
2015-10-24 13:41:28.502929, 482
2015-10-24 13:41:28.503080, 482
2015-10-24 13:41:28.518746, 486
2015-10-24 13:41:28.518928, 490
2015-10-24 13:41:28.519082, 492
2015-10-24 13:41:28.534647, 493
2015-10-24 13:41:28.534828, 492
2015-10-24 13:41:28.534981, 493
2015-10-24 13:41:28.550553, 495
2015-10-24 13:41:28.550753, 493
2015-10-24 13:41:28.550909, 493
2015-10-24 13:41:28.566652, 499
2015-10-24 13:41:28.566901, 502
2015-10-24 13:41:28.567056, 503
2015-10-24 13:41:28.582623, 505
2015-10-24 13:41:28.582869, 509
2015-10-24 13:41:28.583023, 506
2015-10-24 13:41:28.583175, 498
2015-10-24 13:41:28.598647, 492
2015-10-24 13:41:28.598823, 487
2015-10-24 13:41:28.598976, 483
2015-10-24 13:41:28.614802, 481
2015-10-24 13:41:28.614983, 483
2015-10-24 13:41:28.615139, 487
2015-10-24 13:41:28.630614, 485
2015-10-24 13:41:28.630792, 483
2015-10-24 13:41:28.630948, 484
2015-10-24 13:41:28.646619, 486
2015-10-24 13:41:28.646824, 487
2015-10-24 13:41:28.646958, 488
2015-10-24 13:41:28.662740, 498
2015-10-24 13:41:28.662914, 503
2015-10-24 13:41:28.663069, 512
2015-10-24 13:41:28.678573, 555
2015-10-24 13:41:28.678750, 634
2015-10-24 13:41:28.678902, 720
2015-10-24 13:41:28.694804, 808
2015-10-24 13:41:28.695077, 832
2015-10-24 13:41:28.695235, 796
2015-10-24 13:41:28.710748, 680
2015-10-24 13:41:28.711055, 476
2015-10-24 13:41:28.711224, 369
2015-10-24 13:41:28.726668, 378
2015-10-24 13:41:28.726885, 409
2015-10-24 13:41:28.727063, 446
2015-10-24 13:41:28.742700, 478
2015-10-24 13:41:28.742882, 491
2015-10-24 13:41:28.743040, 490
2015-10-24 13:41:28.758642, 489
2015-10-24 13:41:28.758826, 491
2015-10-24 13:41:28.758979, 492
2015-10-24 13:41:28.774642, 493
2015-10-24 13:41:28.774825, 496
2015-10-24 13:41:28.774979, 503
2015-10-24 13:41:28.790698, 507
2015-10-24 13:41:28.790883, 510
2015-10-24 13:41:28.791037, 514
2015-10-24 13:41:28.806520, 517
2015-10-24 13:41:28.806771, 519
2015-10-24 13:41:28.806927, 524
2015-10-24 13:41:28.822524, 529
2015-10-24 13:41:28.822772, 533
2015-10-24 13:41:28.822927, 535
2015-10-24 13:41:28.838498, 538
2015-10-24 13:41:28.838745, 546
2015-10-24 13:41:28.838895, 556
2015-10-24 13:41:28.839039, 563
2015-10-24 13:41:28.854672, 566
2015-10-24 13:41:28.854850, 577
2015-10-24 13:41:28.854998, 586
2015-10-24 13:41:28.870667, 592
2015-10-24 13:41:28.870847, 599
2015-10-24 13:41:28.871000, 608
2015-10-24 13:41:28.886665, 615
2015-10-24 13:41:28.886843, 616
2015-10-24 13:41:28.886997, 615
2015-10-24 13:41:28.902617, 613
2015-10-24 13:41:28.902790, 608
2015-10-24 13:41:28.902941, 601
2015-10-24 13:41:28.918715, 594
2015-10-24 13:41:28.918894, 588
2015-10-24 13:41:28.919046, 578
2015-10-24 13:41:28.934629, 562
2015-10-24 13:41:28.934808, 545
2015-10-24 13:41:28.934965, 531
2015-10-24 13:41:28.950627, 516
2015-10-24 13:41:28.950824, 500
2015-10-24 13:41:28.950981, 489
2015-10-24 13:41:28.966569, 479
2015-10-24 13:41:28.966748, 468
2015-10-24 13:41:28.966900, 461
2015-10-24 13:41:28.982569, 460
2015-10-24 13:41:28.982747, 458
2015-10-24 13:41:28.982898, 455
2015-10-24 13:41:28.998565, 452
2015-10-24 13:41:28.998753, 453
2015-10-24 13:41:28.998907, 453
2015-10-24 13:41:29.014400, 453
2015-10-24 13:41:29.014581, 453
2015-10-24 13:41:29.014731, 454
2015-10-24 13:41:29.030516, 454
2015-10-24 13:41:29.030700, 456
2015-10-24 13:41:29.030855, 459
2015-10-24 13:41:29.046320, 461
2015-10-24 13:41:29.046516, 463
2015-10-24 13:41:29.046668, 463
2015-10-24 13:41:29.062379, 466
2015-10-24 13:41:29.062628, 470
2015-10-24 13:41:29.062788, 473
2015-10-24 13:41:29.078485, 475
2015-10-24 13:41:29.078743, 477
2015-10-24 13:41:29.078897, 478
2015-10-24 13:41:29.079048, 478
2015-10-24 13:41:29.094756, 478
2015-10-24 13:41:29.095005, 480
2015-10-24 13:41:29.095164, 482
2015-10-24 13:41:29.110586, 480
2015-10-24 13:41:29.110767, 480
2015-10-24 13:41:29.110922, 484
2015-10-24 13:41:29.126572, 486
2015-10-24 13:41:29.126749, 484
2015-10-24 13:41:29.126900, 481
2015-10-24 13:41:29.142518, 483
2015-10-24 13:41:29.142697, 484
2015-10-24 13:41:29.142850, 484
2015-10-24 13:41:29.158515, 484
2015-10-24 13:41:29.158693, 483
2015-10-24 13:41:29.158844, 482
2015-10-24 13:41:29.174527, 480
2015-10-24 13:41:29.174705, 481
2015-10-24 13:41:29.174856, 482
2015-10-24 13:41:29.190342, 481
2015-10-24 13:41:29.190468, 479
2015-10-24 13:41:29.190565, 480
2015-10-24 13:41:29.206468, 484
2015-10-24 13:41:29.206648, 487
2015-10-24 13:41:29.206803, 490
2015-10-24 13:41:29.222452, 494
2015-10-24 13:41:29.222630, 497
2015-10-24 13:41:29.222784, 495
2015-10-24 13:41:29.238421, 493
2015-10-24 13:41:29.238610, 495
2015-10-24 13:41:29.238763, 498
2015-10-24 13:41:29.254472, 496
2015-10-24 13:41:29.254658, 494
2015-10-24 13:41:29.254814, 498
2015-10-24 13:41:29.270397, 503
2015-10-24 13:41:29.270583, 506
2015-10-24 13:41:29.270737, 511
2015-10-24 13:41:29.286390, 513
2015-10-24 13:41:29.286577, 508
2015-10-24 13:41:29.286728, 500
2015-10-24 13:41:29.302302, 492
2015-10-24 13:41:29.302549, 486
2015-10-24 13:41:29.302703, 484
2015-10-24 13:41:29.318300, 484
2015-10-24 13:41:29.318551, 488
2015-10-24 13:41:29.318804, 489
2015-10-24 13:41:29.334271, 488
2015-10-24 13:41:29.334519, 487
2015-10-24 13:41:29.334672, 489
2015-10-24 13:41:29.334822, 489
2015-10-24 13:41:29.350297, 486
2015-10-24 13:41:29.350474, 491
2015-10-24 13:41:29.350627, 507
2015-10-24 13:41:29.366445, 510
2015-10-24 13:41:29.366620, 526
2015-10-24 13:41:29.366774, 581
2015-10-24 13:41:29.382296, 653
2015-10-24 13:41:29.382475, 735
2015-10-24 13:41:29.382629, 791
2015-10-24 13:41:29.398395, 780
2015-10-24 13:41:29.398572, 734
2015-10-24 13:41:29.398728, 589
2015-10-24 13:41:29.414383, 412
2015-10-24 13:41:29.414559, 366
2015-10-24 13:41:29.414712, 388
2015-10-24 13:41:29.430554, 419
2015-10-24 13:41:29.430841, 456
2015-10-24 13:41:29.431010, 485
2015-10-24 13:41:29.446370, 495
2015-10-24 13:41:29.446548, 490
2015-10-24 13:41:29.446706, 489
2015-10-24 13:41:29.462486, 493
2015-10-24 13:41:29.462744, 497
2015-10-24 13:41:29.462961, 498
2015-10-24 13:41:29.478349, 498
2015-10-24 13:41:29.478531, 503
2015-10-24 13:41:29.478685, 509
2015-10-24 13:41:29.494309, 511
2015-10-24 13:41:29.494494, 513
2015-10-24 13:41:29.494645, 516
2015-10-24 13:41:29.510571, 520
2015-10-24 13:41:29.511155, 523
2015-10-24 13:41:29.511546, 527
2015-10-24 13:41:29.526290, 532
2015-10-24 13:41:29.526475, 537
2015-10-24 13:41:29.526629, 539
2015-10-24 13:41:29.542192, 544
2015-10-24 13:41:29.542435, 551
2015-10-24 13:41:29.542587, 558
2015-10-24 13:41:29.558242, 564
2015-10-24 13:41:29.558496, 572
2015-10-24 13:41:29.558654, 583
2015-10-24 13:41:29.574200, 591
2015-10-24 13:41:29.574447, 595
2015-10-24 13:41:29.574602, 600
2015-10-24 13:41:29.574757, 602
2015-10-24 13:41:29.590417, 604
2015-10-24 13:41:29.590592, 601
2015-10-24 13:41:29.590746, 598
2015-10-24 13:41:29.606378, 594
2015-10-24 13:41:29.606555, 587
2015-10-24 13:41:29.606713, 579
2015-10-24 13:41:29.622336, 569
2015-10-24 13:41:29.622511, 555
2015-10-24 13:41:29.622660, 535
2015-10-24 13:41:29.638323, 517
2015-10-24 13:41:29.638497, 502
2015-10-24 13:41:29.638646, 485
2015-10-24 13:41:29.654292, 472
2015-10-24 13:41:29.654467, 461
2015-10-24 13:41:29.654619, 452
2015-10-24 13:41:29.670299, 446
2015-10-24 13:41:29.670478, 442
2015-10-24 13:41:29.670632, 440
2015-10-24 13:41:29.686129, 439
2015-10-24 13:41:29.686309, 438
2015-10-24 13:41:29.686464, 436
2015-10-24 13:41:29.702300, 435
2015-10-24 13:41:29.702480, 435
2015-10-24 13:41:29.702637, 434
2015-10-24 13:41:29.718122, 435
2015-10-24 13:41:29.718301, 437
2015-10-24 13:41:29.718453, 436
2015-10-24 13:41:29.734219, 437
2015-10-24 13:41:29.734401, 440
2015-10-24 13:41:29.734552, 442
2015-10-24 13:41:29.750268, 443
2015-10-24 13:41:29.750456, 445
2015-10-24 13:41:29.750638, 450
2015-10-24 13:41:29.766079, 454
2015-10-24 13:41:29.766265, 454
2015-10-24 13:41:29.766425, 455
2015-10-24 13:41:29.782164, 457
2015-10-24 13:41:29.782374, 459
2015-10-24 13:41:29.782534, 460
2015-10-24 13:41:29.798213, 461
2015-10-24 13:41:29.798605, 463
2015-10-24 13:41:29.798804, 465
2015-10-24 13:41:29.814177, 464
2015-10-24 13:41:29.814536, 461
2015-10-24 13:41:29.814703, 461
2015-10-24 13:41:29.814880, 462
2015-10-24 13:41:29.830263, 463
2015-10-24 13:41:29.830436, 462
2015-10-24 13:41:29.830584, 464
2015-10-24 13:41:29.846247, 465
2015-10-24 13:41:29.846422, 461
2015-10-24 13:41:29.846575, 460
2015-10-24 13:41:29.862245, 463
2015-10-24 13:41:29.862423, 464
2015-10-24 13:41:29.862577, 460
2015-10-24 13:41:29.878222, 461
2015-10-24 13:41:29.878400, 463
2015-10-24 13:41:29.878555, 463
2015-10-24 13:41:29.894221, 462
2015-10-24 13:41:29.894399, 461
2015-10-24 13:41:29.894553, 460
2015-10-24 13:41:29.910221, 462
2015-10-24 13:41:29.910396, 462
2015-10-24 13:41:29.910548, 467
2015-10-24 13:41:29.926165, 472
2015-10-24 13:41:29.926348, 469
2015-10-24 13:41:29.926502, 470
2015-10-24 13:41:29.942237, 475
2015-10-24 13:41:29.942424, 475
2015-10-24 13:41:29.942611, 476
2015-10-24 13:41:29.958175, 478
2015-10-24 13:41:29.958355, 479
2015-10-24 13:41:29.958509, 479
2015-10-24 13:41:29.974143, 479
2015-10-24 13:41:29.974329, 483
2015-10-24 13:41:29.974524, 488
2015-10-24 13:41:29.990142, 491
2015-10-24 13:41:29.990327, 493
2015-10-24 13:41:29.990479, 490
2015-10-24 13:41:30.006114, 483
2015-10-24 13:41:30.006299, 473
2015-10-24 13:41:30.006453, 466
2015-10-24 13:41:30.022113, 467
2015-10-24 13:41:30.022301, 470
2015-10-24 13:41:30.022456, 471
2015-10-24 13:41:30.038024, 470
2015-10-24 13:41:30.038273, 470
2015-10-24 13:41:30.038426, 474
2015-10-24 13:41:30.054031, 475
2015-10-24 13:41:30.054277, 473
2015-10-24 13:41:30.054434, 474
2015-10-24 13:41:30.070071, 479
2015-10-24 13:41:30.070317, 489
2015-10-24 13:41:30.070499, 489
2015-10-24 13:41:30.070656, 510
2015-10-24 13:41:30.086170, 574
2015-10-24 13:41:30.086349, 654
2015-10-24 13:41:30.086504, 747
2015-10-24 13:41:30.102021, 815
2015-10-24 13:41:30.102194, 798
2015-10-24 13:41:30.102346, 742
2015-10-24 13:41:30.118126, 589
2015-10-24 13:41:30.118300, 410
2015-10-24 13:41:30.118454, 358
2015-10-24 13:41:30.133946, 381
2015-10-24 13:41:30.134118, 416
2015-10-24 13:41:30.134272, 456
2015-10-24 13:41:30.150078, 479
2015-10-24 13:41:30.150255, 483
2015-10-24 13:41:30.150420, 482
2015-10-24 13:41:30.166085, 482
2015-10-24 13:41:30.166261, 483
2015-10-24 13:41:30.166411, 484
2015-10-24 13:41:30.181911, 488
2015-10-24 13:41:30.182086, 493
2015-10-24 13:41:30.182241, 495
2015-10-24 13:41:30.198096, 497
2015-10-24 13:41:30.198281, 499
2015-10-24 13:41:30.198463, 503
2015-10-24 13:41:30.213998, 507
2015-10-24 13:41:30.214177, 511
2015-10-24 13:41:30.214331, 518
2015-10-24 13:41:30.230065, 523
2015-10-24 13:41:30.230247, 526
2015-10-24 13:41:30.230398, 530
2015-10-24 13:41:30.246026, 537
2015-10-24 13:41:30.246218, 541
2015-10-24 13:41:30.246375, 547
2015-10-24 13:41:30.262107, 556
2015-10-24 13:41:30.262383, 565
2015-10-24 13:41:30.262566, 571
2015-10-24 13:41:30.277881, 576
2015-10-24 13:41:30.278135, 585
2015-10-24 13:41:30.278295, 592
2015-10-24 13:41:30.293974, 597
2015-10-24 13:41:30.294318, 600
2015-10-24 13:41:30.294517, 602
2015-10-24 13:41:30.309949, 603
2015-10-24 13:41:30.310218, 601
2015-10-24 13:41:30.310375, 598
2015-10-24 13:41:30.310528, 592
2015-10-24 13:41:30.326119, 586
2015-10-24 13:41:30.326297, 575
2015-10-24 13:41:30.326472, 561
2015-10-24 13:41:30.342059, 546
2015-10-24 13:41:30.342240, 529
2015-10-24 13:41:30.342394, 513
2015-10-24 13:41:30.358062, 497
2015-10-24 13:41:30.358240, 483
2015-10-24 13:41:30.358399, 471
2015-10-24 13:41:30.374012, 461
2015-10-24 13:41:30.374193, 455
2015-10-24 13:41:30.374347, 450
2015-10-24 13:41:30.390009, 447
2015-10-24 13:41:30.390187, 445
2015-10-24 13:41:30.390340, 446
2015-10-24 13:41:30.406006, 447
2015-10-24 13:41:30.406183, 446
2015-10-24 13:41:30.406336, 445
2015-10-24 13:41:30.421963, 446
2015-10-24 13:41:30.422145, 447
2015-10-24 13:41:30.422300, 446
2015-10-24 13:41:30.437991, 448
2015-10-24 13:41:30.438172, 451
2015-10-24 13:41:30.438328, 452
2015-10-24 13:41:30.453958, 452
2015-10-24 13:41:30.454137, 455
2015-10-24 13:41:30.454295, 457
2015-10-24 13:41:30.469926, 461
2015-10-24 13:41:30.470111, 464
2015-10-24 13:41:30.470261, 465
2015-10-24 13:41:30.485881, 467
2015-10-24 13:41:30.486062, 468
2015-10-24 13:41:30.486214, 468
2015-10-24 13:41:30.501902, 471
2015-10-24 13:41:30.502098, 475
2015-10-24 13:41:30.502256, 476
2015-10-24 13:41:30.517811, 476
2015-10-24 13:41:30.518056, 476
2015-10-24 13:41:30.518212, 477
2015-10-24 13:41:30.533815, 477
2015-10-24 13:41:30.534065, 475
2015-10-24 13:41:30.534218, 477
2015-10-24 13:41:30.549709, 480
2015-10-24 13:41:30.549908, 478
2015-10-24 13:41:30.550060, 475
2015-10-24 13:41:30.550211, 476
2015-10-24 13:41:30.565971, 476
2015-10-24 13:41:30.566148, 475
2015-10-24 13:41:30.566304, 476
2015-10-24 13:41:30.582058, 477
2015-10-24 13:41:30.582241, 477
2015-10-24 13:41:30.582399, 474
2015-10-24 13:41:30.598114, 472
2015-10-24 13:41:30.598362, 474
2015-10-24 13:41:30.598526, 477
2015-10-24 13:41:30.613954, 478
2015-10-24 13:41:30.614129, 478
2015-10-24 13:41:30.614281, 479
2015-10-24 13:41:30.630155, 479
2015-10-24 13:41:30.630412, 477
2015-10-24 13:41:30.630577, 477
2015-10-24 13:41:30.645800, 481
2015-10-24 13:41:30.645975, 484
2015-10-24 13:41:30.646127, 486
2015-10-24 13:41:30.661935, 487
2015-10-24 13:41:30.662112, 491
2015-10-24 13:41:30.662268, 491
2015-10-24 13:41:30.678123, 491
2015-10-24 13:41:30.678390, 493
2015-10-24 13:41:30.678559, 494
2015-10-24 13:41:30.693857, 489
2015-10-24 13:41:30.694038, 489
2015-10-24 13:41:30.694193, 495
2015-10-24 13:41:30.709915, 499
2015-10-24 13:41:30.710260, 498
2015-10-24 13:41:30.710428, 500
2015-10-24 13:41:30.725898, 504
2015-10-24 13:41:30.726092, 501
2015-10-24 13:41:30.726253, 493
2015-10-24 13:41:30.741834, 484
2015-10-24 13:41:30.742019, 479
2015-10-24 13:41:30.742172, 478
2015-10-24 13:41:30.757831, 478
2015-10-24 13:41:30.758018, 480
2015-10-24 13:41:30.758176, 481
2015-10-24 13:41:30.773708, 479
2015-10-24 13:41:30.773959, 478
2015-10-24 13:41:30.774117, 481
2015-10-24 13:41:30.789716, 483
2015-10-24 13:41:30.789969, 482
2015-10-24 13:41:30.790125, 485
2015-10-24 13:41:30.805705, 494
2015-10-24 13:41:30.805956, 499
2015-10-24 13:41:30.806111, 528
2015-10-24 13:41:30.806261, 600
2015-10-24 13:41:30.821879, 686
2015-10-24 13:41:30.822057, 782
2015-10-24 13:41:30.822210, 833
2015-10-24 13:41:30.837766, 805
2015-10-24 13:41:30.837947, 730
2015-10-24 13:41:30.838101, 548
2015-10-24 13:41:30.853873, 387
2015-10-24 13:41:30.854047, 363
2015-10-24 13:41:30.854201, 393
2015-10-24 13:41:30.869914, 431
2015-10-24 13:41:30.870097, 465
2015-10-24 13:41:30.870254, 482
2015-10-24 13:41:30.885688, 485
2015-10-24 13:41:30.885862, 483
2015-10-24 13:41:30.886016, 482
2015-10-24 13:41:30.901832, 484
2015-10-24 13:41:30.902009, 487
2015-10-24 13:41:30.902162, 490
2015-10-24 13:41:30.917800, 494
2015-10-24 13:41:30.917978, 499
2015-10-24 13:41:30.918136, 504
2015-10-24 13:41:30.933641, 505
2015-10-24 13:41:30.933817, 507
2015-10-24 13:41:30.933969, 511
2015-10-24 13:41:30.949791, 516
2015-10-24 13:41:30.949970, 520
2015-10-24 13:41:30.950124, 525
2015-10-24 13:41:30.965528, 529
2015-10-24 13:41:30.965710, 532
2015-10-24 13:41:30.965862, 537
2015-10-24 13:41:30.981752, 544
2015-10-24 13:41:30.981936, 550
2015-10-24 13:41:30.982089, 556
2015-10-24 13:41:30.997733, 561
2015-10-24 13:41:30.997918, 570
2015-10-24 13:41:30.998069, 581
2015-10-24 13:41:31.013800, 589
2015-10-24 13:41:31.014170, 596
2015-10-24 13:41:31.014353, 603
2015-10-24 13:41:31.029628, 609
2015-10-24 13:41:31.029877, 608
2015-10-24 13:41:31.030033, 605
2015-10-24 13:41:31.045631, 604
2015-10-24 13:41:31.045880, 601
2015-10-24 13:41:31.046036, 593
2015-10-24 13:41:31.046184, 583
2015-10-24 13:41:31.061832, 574
2015-10-24 13:41:31.062012, 561
2015-10-24 13:41:31.062172, 544
2015-10-24 13:41:31.077801, 528
2015-10-24 13:41:31.077980, 512
2015-10-24 13:41:31.078131, 498
2015-10-24 13:41:31.093869, 483
2015-10-24 13:41:31.094153, 471
2015-10-24 13:41:31.094315, 463
2015-10-24 13:41:31.109757, 457
2015-10-24 13:41:31.109930, 452
2015-10-24 13:41:31.110080, 450
2015-10-24 13:41:31.125758, 451
2015-10-24 13:41:31.125936, 447
2015-10-24 13:41:31.126087, 443
2015-10-24 13:41:31.141760, 444
2015-10-24 13:41:31.141937, 445
2015-10-24 13:41:31.142094, 446
2015-10-24 13:41:31.157742, 446
2015-10-24 13:41:31.157928, 448
2015-10-24 13:41:31.158088, 450
2015-10-24 13:41:31.173705, 449
2015-10-24 13:41:31.173885, 451
2015-10-24 13:41:31.174037, 455
2015-10-24 13:41:31.189703, 456
2015-10-24 13:41:31.189883, 454
2015-10-24 13:41:31.190039, 459
2015-10-24 13:41:31.205519, 465
2015-10-24 13:41:31.205700, 466
2015-10-24 13:41:31.205947, 467
2015-10-24 13:41:31.221726, 469
2015-10-24 13:41:31.221914, 472
2015-10-24 13:41:31.222096, 473
2015-10-24 13:41:31.237654, 473
2015-10-24 13:41:31.237838, 473
2015-10-24 13:41:31.237991, 473
2015-10-24 13:41:31.253558, 472
2015-10-24 13:41:31.253807, 472
2015-10-24 13:41:31.253966, 476
2015-10-24 13:41:31.269637, 477
2015-10-24 13:41:31.269903, 473
2015-10-24 13:41:31.270064, 474
2015-10-24 13:41:31.285538, 476
2015-10-24 13:41:31.285792, 479
2015-10-24 13:41:31.285947, 477
2015-10-24 13:41:31.286101, 473
2015-10-24 13:41:31.301560, 474
2015-10-24 13:41:31.301734, 475
2015-10-24 13:41:31.301887, 472
2015-10-24 13:41:31.317712, 473
2015-10-24 13:41:31.317887, 475
2015-10-24 13:41:31.318040, 475
2015-10-24 13:41:31.333704, 474
2015-10-24 13:41:31.333880, 474
2015-10-24 13:41:31.334031, 476
2015-10-24 13:41:31.349480, 474
2015-10-24 13:41:31.349656, 473
2015-10-24 13:41:31.349810, 474
2015-10-24 13:41:31.365656, 477
2015-10-24 13:41:31.365835, 480
2015-10-24 13:41:31.365992, 479
2015-10-24 13:41:31.381493, 479
2015-10-24 13:41:31.381714, 480
2015-10-24 13:41:31.381867, 481
2015-10-24 13:41:31.397583, 482
2015-10-24 13:41:31.397770, 486
2015-10-24 13:41:31.397930, 488
2015-10-24 13:41:31.413636, 487
2015-10-24 13:41:31.413815, 490
2015-10-24 13:41:31.413966, 494
2015-10-24 13:41:31.429829, 493
2015-10-24 13:41:31.430101, 493
2015-10-24 13:41:31.430271, 492
2015-10-24 13:41:31.445663, 490
2015-10-24 13:41:31.445846, 494
2015-10-24 13:41:31.446001, 498
2015-10-24 13:41:31.461582, 501
2015-10-24 13:41:31.461766, 505
2015-10-24 13:41:31.461919, 506
2015-10-24 13:41:31.477628, 502
2015-10-24 13:41:31.477817, 497
2015-10-24 13:41:31.477971, 492
2015-10-24 13:41:31.493486, 484
2015-10-24 13:41:31.493735, 478
2015-10-24 13:41:31.493893, 478
2015-10-24 13:41:31.509492, 480
2015-10-24 13:41:31.509742, 482
2015-10-24 13:41:31.509903, 483
2015-10-24 13:41:31.525463, 485
2015-10-24 13:41:31.525711, 485
2015-10-24 13:41:31.525862, 484
2015-10-24 13:41:31.541461, 484
2015-10-24 13:41:31.541709, 485
2015-10-24 13:41:31.541864, 496
2015-10-24 13:41:31.542013, 501
2015-10-24 13:41:31.557650, 507
2015-10-24 13:41:31.557830, 553
2015-10-24 13:41:31.557986, 634
2015-10-24 13:41:31.573630, 723
2015-10-24 13:41:31.573807, 813
2015-10-24 13:41:31.573973, 840
2015-10-24 13:41:31.589603, 802
2015-10-24 13:41:31.589780, 684
2015-10-24 13:41:31.589932, 479
2015-10-24 13:41:31.605653, 371
2015-10-24 13:41:31.605833, 374
2015-10-24 13:41:31.606012, 405
2015-10-24 13:41:31.621437, 447
2015-10-24 13:41:31.621613, 479
2015-10-24 13:41:31.621765, 488
2015-10-24 13:41:31.637650, 485
2015-10-24 13:41:31.637831, 484
2015-10-24 13:41:31.637988, 486
2015-10-24 13:41:31.653597, 487
2015-10-24 13:41:31.653780, 492
2015-10-24 13:41:31.653937, 497
2015-10-24 13:41:31.669388, 499
2015-10-24 13:41:31.669534, 500
2015-10-24 13:41:31.669644, 504
2015-10-24 13:41:31.685159, 511
2015-10-24 13:41:31.685285, 514
2015-10-24 13:41:31.685398, 516
2015-10-24 13:41:31.701083, 519
2015-10-24 13:41:31.701162, 523
2015-10-24 13:41:31.701223, 527
2015-10-24 13:41:31.717087, 530
2015-10-24 13:41:31.717146, 535
2015-10-24 13:41:31.717192, 544
2015-10-24 13:41:31.733128, 552
2015-10-24 13:41:31.733189, 557
2015-10-24 13:41:31.733235, 564
2015-10-24 13:41:31.749024, 573
2015-10-24 13:41:31.749082, 581
2015-10-24 13:41:31.749128, 588
2015-10-24 13:41:31.765153, 597
2015-10-24 13:41:31.765227, 605
2015-10-24 13:41:31.765273, 607
2015-10-24 13:41:31.781389, 608
2015-10-24 13:41:31.781643, 611
2015-10-24 13:41:31.781799, 614
2015-10-24 13:41:31.781954, 609
2015-10-24 13:41:31.797789, 601
2015-10-24 13:41:31.798017, 594
2015-10-24 13:41:31.798179, 587
2015-10-24 13:41:31.813541, 577
2015-10-24 13:41:31.813720, 565
2015-10-24 13:41:31.813874, 553
2015-10-24 13:41:31.829539, 537
2015-10-24 13:41:31.829716, 518
2015-10-24 13:41:31.829967, 504
2015-10-24 13:41:31.845635, 492
2015-10-24 13:41:31.845895, 479
2015-10-24 13:41:31.846065, 468
2015-10-24 13:41:31.861537, 463
2015-10-24 13:41:31.861714, 460
2015-10-24 13:41:31.861867, 454
2015-10-24 13:41:31.877612, 450
2015-10-24 13:41:31.877874, 453
2015-10-24 13:41:31.878042, 452
2015-10-24 13:41:31.893143, 450
2015-10-24 13:41:31.893268, 450
2015-10-24 13:41:31.893365, 450
2015-10-24 13:41:31.909459, 453
2015-10-24 13:41:31.909637, 452
2015-10-24 13:41:31.909793, 452
2015-10-24 13:41:31.925457, 454
2015-10-24 13:41:31.925650, 458
2015-10-24 13:41:31.925805, 460
2015-10-24 13:41:31.941406, 461
2015-10-24 13:41:31.941592, 464
2015-10-24 13:41:31.941746, 467
2015-10-24 13:41:31.957461, 468
2015-10-24 13:41:31.957649, 469
2015-10-24 13:41:31.957832, 473
2015-10-24 13:41:31.973420, 473
2015-10-24 13:41:31.973612, 473
2015-10-24 13:41:31.973772, 475
2015-10-24 13:41:31.989383, 476
2015-10-24 13:41:31.989585, 477
2015-10-24 13:41:31.989734, 478
2015-10-24 13:41:32.005289, 480
2015-10-24 13:41:32.005541, 480
2015-10-24 13:41:32.005696, 479
2015-10-24 13:41:32.021352, 480
2015-10-24 13:41:32.021600, 481
2015-10-24 13:41:32.021758, 481
2015-10-24 13:41:32.021910, 480
2015-10-24 13:41:32.037452, 480
2015-10-24 13:41:32.037628, 481
2015-10-24 13:41:32.037782, 481
2015-10-24 13:41:32.053465, 479
2015-10-24 13:41:32.053645, 479
2015-10-24 13:41:32.053797, 479
2015-10-24 13:41:32.069425, 480
2015-10-24 13:41:32.069605, 479
2015-10-24 13:41:32.069756, 479
2015-10-24 13:41:32.085373, 479
2015-10-24 13:41:32.085552, 482
2015-10-24 13:41:32.085710, 481
2015-10-24 13:41:32.101220, 482
2015-10-24 13:41:32.101397, 485
2015-10-24 13:41:32.101549, 488
2015-10-24 13:41:32.117428, 487
2015-10-24 13:41:32.117607, 490
2015-10-24 13:41:32.117763, 493
2015-10-24 13:41:32.133353, 490
2015-10-24 13:41:32.133533, 490
2015-10-24 13:41:32.133685, 493
2015-10-24 13:41:32.149347, 497
2015-10-24 13:41:32.149525, 499
2015-10-24 13:41:32.149679, 495
2015-10-24 13:41:32.165318, 495
2015-10-24 13:41:32.165493, 499
2015-10-24 13:41:32.165643, 500
2015-10-24 13:41:32.181164, 503
2015-10-24 13:41:32.181345, 507
2015-10-24 13:41:32.181497, 509
2015-10-24 13:41:32.197297, 507
2015-10-24 13:41:32.197480, 501
2015-10-24 13:41:32.197634, 495
2015-10-24 13:41:32.213276, 486
2015-10-24 13:41:32.213461, 481
2015-10-24 13:41:32.213614, 480
2015-10-24 13:41:32.229162, 482
2015-10-24 13:41:32.229414, 484
2015-10-24 13:41:32.229573, 485
2015-10-24 13:41:32.245215, 488
2015-10-24 13:41:32.245469, 486
2015-10-24 13:41:32.245623, 484
2015-10-24 13:41:32.261095, 484
2015-10-24 13:41:32.261431, 488
2015-10-24 13:41:32.261606, 500
2015-10-24 13:41:32.261713, 502
2015-10-24 13:41:32.277355, 512
2015-10-24 13:41:32.277535, 563
2015-10-24 13:41:32.277694, 639
2015-10-24 13:41:32.293324, 723
2015-10-24 13:41:32.293499, 801
2015-10-24 13:41:32.293652, 812
2015-10-24 13:41:32.309388, 776
2015-10-24 13:41:32.309566, 655
2015-10-24 13:41:32.309717, 459
2015-10-24 13:41:32.325320, 372
2015-10-24 13:41:32.325497, 385
2015-10-24 13:41:32.325649, 415
2015-10-24 13:41:32.341296, 452
2015-10-24 13:41:32.341473, 482
2015-10-24 13:41:32.341623, 495
2015-10-24 13:41:32.357301, 495
2015-10-24 13:41:32.357478, 495
2015-10-24 13:41:32.357631, 496
2015-10-24 13:41:32.373344, 497
2015-10-24 13:41:32.373527, 498
2015-10-24 13:41:32.373682, 501
2015-10-24 13:41:32.389100, 505
2015-10-24 13:41:32.389276, 507
2015-10-24 13:41:32.389429, 511
2015-10-24 13:41:32.405251, 516
2015-10-24 13:41:32.405433, 522
2015-10-24 13:41:32.405588, 523
2015-10-24 13:41:32.421239, 526
2015-10-24 13:41:32.421416, 531
2015-10-24 13:41:32.421563, 534
2015-10-24 13:41:32.437216, 537
2015-10-24 13:41:32.437400, 543
2015-10-24 13:41:32.437555, 551
2015-10-24 13:41:32.453177, 556
2015-10-24 13:41:32.453361, 562
2015-10-24 13:41:32.453514, 570
2015-10-24 13:41:32.469249, 579
2015-10-24 13:41:32.469528, 587
2015-10-24 13:41:32.469686, 594
2015-10-24 13:41:32.485092, 602
2015-10-24 13:41:32.485339, 609
2015-10-24 13:41:32.485493, 613
2015-10-24 13:41:32.501195, 613
2015-10-24 13:41:32.501454, 614
2015-10-24 13:41:32.501613, 612
2015-10-24 13:41:32.516904, 609
2015-10-24 13:41:32.517103, 602
2015-10-24 13:41:32.517261, 596
2015-10-24 13:41:32.517412, 586
2015-10-24 13:41:32.533245, 574
2015-10-24 13:41:32.533425, 560
2015-10-24 13:41:32.533579, 544
2015-10-24 13:41:32.549141, 527
2015-10-24 13:41:32.549320, 506
2015-10-24 13:41:32.549474, 490
2015-10-24 13:41:32.565249, 481
2015-10-24 13:41:32.565430, 472
2015-10-24 13:41:32.565587, 464
2015-10-24 13:41:32.581198, 458
2015-10-24 13:41:32.581381, 454
2015-10-24 13:41:32.581533, 450
2015-10-24 13:41:32.597156, 448
2015-10-24 13:41:32.597332, 445
2015-10-24 13:41:32.597484, 444
2015-10-24 13:41:32.613192, 444
2015-10-24 13:41:32.613372, 446
2015-10-24 13:41:32.613525, 448
2015-10-24 13:41:32.629409, 449
2015-10-24 13:41:32.629667, 447
2015-10-24 13:41:32.629827, 448
2015-10-24 13:41:32.645167, 452
2015-10-24 13:41:32.645340, 454
2015-10-24 13:41:32.645493, 453
2015-10-24 13:41:32.661175, 455
2015-10-24 13:41:32.661354, 461
2015-10-24 13:41:32.661506, 464
2015-10-24 13:41:32.677116, 464
2015-10-24 13:41:32.677298, 465
2015-10-24 13:41:32.677450, 467
2015-10-24 13:41:32.693173, 470
2015-10-24 13:41:32.693360, 471
2015-10-24 13:41:32.693513, 473
2015-10-24 13:41:32.709184, 473
2015-10-24 13:41:32.709374, 471
2015-10-24 13:41:32.709527, 471
2015-10-24 13:41:32.725032, 472
2015-10-24 13:41:32.725285, 474
2015-10-24 13:41:32.725441, 474
2015-10-24 13:41:32.740998, 473
2015-10-24 13:41:32.741248, 473
2015-10-24 13:41:32.741402, 474
2015-10-24 13:41:32.757070, 472
2015-10-24 13:41:32.757320, 470
2015-10-24 13:41:32.757478, 470
2015-10-24 13:41:32.757629, 472
2015-10-24 13:41:32.773165, 469
2015-10-24 13:41:32.773337, 469
2015-10-24 13:41:32.773484, 469
2015-10-24 13:41:32.788730, 473
2015-10-24 13:41:32.788790, 474
2015-10-24 13:41:32.788836, 474
2015-10-24 13:41:32.804726, 475
2015-10-24 13:41:32.804790, 478
2015-10-24 13:41:32.804838, 477
2015-10-24 13:41:32.820722, 481
2015-10-24 13:41:32.820782, 484
2015-10-24 13:41:32.820828, 482
2015-10-24 13:41:32.836770, 481
2015-10-24 13:41:32.836824, 483
2015-10-24 13:41:32.836871, 482
2015-10-24 13:41:32.852685, 482
2015-10-24 13:41:32.852744, 482
2015-10-24 13:41:32.852789, 487
2015-10-24 13:41:32.869138, 494
2015-10-24 13:41:32.869318, 495
2015-10-24 13:41:32.869472, 491
2015-10-24 13:41:32.884694, 487
2015-10-24 13:41:32.884753, 480
2015-10-24 13:41:32.884798, 471
2015-10-24 13:41:32.900778, 468
2015-10-24 13:41:32.900972, 469
2015-10-24 13:41:32.901159, 470
2015-10-24 13:41:32.917074, 468
2015-10-24 13:41:32.917265, 466
2015-10-24 13:41:32.917422, 469
2015-10-24 13:41:32.932899, 471
2015-10-24 13:41:32.933055, 473
2015-10-24 13:41:32.933183, 473
2015-10-24 13:41:32.949042, 474
2015-10-24 13:41:32.949223, 481
2015-10-24 13:41:32.949377, 485
2015-10-24 13:41:32.964837, 492
2015-10-24 13:41:32.965164, 526
2015-10-24 13:41:32.965277, 598
2015-10-24 13:41:32.980611, 679
2015-10-24 13:41:32.980676, 762
2015-10-24 13:41:32.980723, 795
2015-10-24 13:41:32.996581, 765
2015-10-24 13:41:32.996645, 677
2015-10-24 13:41:32.996691, 496
2015-10-24 13:41:32.996736, 366
2015-10-24 13:41:33.012633, 357
2015-10-24 13:41:33.012690, 382
2015-10-24 13:41:33.012736, 417
2015-10-24 13:41:33.029107, 454
2015-10-24 13:41:33.029283, 473
2015-10-24 13:41:33.029435, 475
2015-10-24 13:41:33.045102, 473
2015-10-24 13:41:33.045287, 473
2015-10-24 13:41:33.045440, 475
2015-10-24 13:41:33.061119, 479
2015-10-24 13:41:33.061300, 481
2015-10-24 13:41:33.061458, 484
2015-10-24 13:41:33.077026, 488
2015-10-24 13:41:33.077203, 493
2015-10-24 13:41:33.077359, 499
2015-10-24 13:41:33.093021, 500
2015-10-24 13:41:33.093295, 504
2015-10-24 13:41:33.093459, 509
2015-10-24 13:41:33.109160, 513
2015-10-24 13:41:33.109339, 519
2015-10-24 13:41:33.109516, 523
2015-10-24 13:41:33.125003, 529
2015-10-24 13:41:33.125184, 533
2015-10-24 13:41:33.125338, 538
2015-10-24 13:41:33.140954, 545
2015-10-24 13:41:33.141142, 553
2015-10-24 13:41:33.141317, 560
2015-10-24 13:41:33.156973, 567
2015-10-24 13:41:33.157150, 576
2015-10-24 13:41:33.157299, 585
2015-10-24 13:41:33.172943, 592
2015-10-24 13:41:33.173128, 594
2015-10-24 13:41:33.173279, 597
2015-10-24 13:41:33.188943, 598
2015-10-24 13:41:33.189124, 596
2015-10-24 13:41:33.189274, 592
2015-10-24 13:41:33.204946, 587
2015-10-24 13:41:33.205133, 582
2015-10-24 13:41:33.205286, 573
2015-10-24 13:41:33.220813, 559
2015-10-24 13:41:33.221065, 544
2015-10-24 13:41:33.221221, 528
2015-10-24 13:41:33.236843, 512
2015-10-24 13:41:33.237103, 496
2015-10-24 13:41:33.237263, 483
2015-10-24 13:41:33.252817, 471
2015-10-24 13:41:33.253068, 460
2015-10-24 13:41:33.253224, 452
2015-10-24 13:41:33.253377, 448
2015-10-24 13:41:33.268993, 443
2015-10-24 13:41:33.269177, 437
2015-10-24 13:41:33.269336, 436
2015-10-24 13:41:33.285007, 436
2015-10-24 13:41:33.285193, 436
2015-10-24 13:41:33.285352, 435
2015-10-24 13:41:33.300828, 436
2015-10-24 13:41:33.301004, 439
2015-10-24 13:41:33.301155, 438
2015-10-24 13:41:33.316934, 436
2015-10-24 13:41:33.317112, 438
2015-10-24 13:41:33.317267, 442
2015-10-24 13:41:33.332956, 443
2015-10-24 13:41:33.333134, 445
2015-10-24 13:41:33.333307, 449
2015-10-24 13:41:33.349044, 452
2015-10-24 13:41:33.349323, 453
2015-10-24 13:41:33.349496, 454
2015-10-24 13:41:33.364895, 457
2015-10-24 13:41:33.365073, 461
2015-10-24 13:41:33.365225, 463
2015-10-24 13:41:33.381086, 463
2015-10-24 13:41:33.381351, 466
2015-10-24 13:41:33.381523, 469
2015-10-24 13:41:33.396989, 470
2015-10-24 13:41:33.397172, 469
2015-10-24 13:41:33.397322, 470
2015-10-24 13:41:33.412861, 471
2015-10-24 13:41:33.413044, 471
2015-10-24 13:41:33.413196, 472
2015-10-24 13:41:33.428957, 471
2015-10-24 13:41:33.429234, 468
2015-10-24 13:41:33.429419, 468
2015-10-24 13:41:33.444862, 470
2015-10-24 13:41:33.445048, 472
2015-10-24 13:41:33.445204, 470
2015-10-24 13:41:33.460946, 469
2015-10-24 13:41:33.461315, 470
2015-10-24 13:41:33.461491, 472
2015-10-24 13:41:33.476766, 469
2015-10-24 13:41:33.477016, 467
2015-10-24 13:41:33.477166, 469
2015-10-24 13:41:33.492773, 472
2015-10-24 13:41:33.493021, 471
2015-10-24 13:41:33.493177, 471
2015-10-24 13:41:33.493328, 477
2015-10-24 13:41:33.508950, 480
2015-10-24 13:41:33.509124, 481
2015-10-24 13:41:33.509277, 482
2015-10-24 13:41:33.525074, 481
2015-10-24 13:41:33.525253, 479
2015-10-24 13:41:33.525404, 482
2015-10-24 13:41:33.540957, 485
2015-10-24 13:41:33.541140, 484
2015-10-24 13:41:33.541297, 483
2015-10-24 13:41:33.556825, 484
2015-10-24 13:41:33.557004, 489
2015-10-24 13:41:33.557159, 494
2015-10-24 13:41:33.572921, 495
2015-10-24 13:41:33.573101, 496
2015-10-24 13:41:33.573256, 495
2015-10-24 13:41:33.588850, 490
2015-10-24 13:41:33.589027, 480
2015-10-24 13:41:33.589180, 472
2015-10-24 13:41:33.604813, 472
2015-10-24 13:41:33.604992, 475
2015-10-24 13:41:33.605146, 476
2015-10-24 13:41:33.620825, 476
2015-10-24 13:41:33.621007, 476
2015-10-24 13:41:33.621159, 477
2015-10-24 13:41:33.636668, 478
2015-10-24 13:41:33.636845, 476
2015-10-24 13:41:33.637001, 479
2015-10-24 13:41:33.652867, 483
2015-10-24 13:41:33.653065, 492
2015-10-24 13:41:33.653219, 493
2015-10-24 13:41:33.668821, 514
2015-10-24 13:41:33.669008, 580
2015-10-24 13:41:33.669162, 661
2015-10-24 13:41:33.684544, 755
2015-10-24 13:41:33.684727, 820
2015-10-24 13:41:33.684881, 802
2015-10-24 13:41:33.700672, 745
2015-10-24 13:41:33.700974, 589
2015-10-24 13:41:33.701132, 407
2015-10-24 13:41:33.716583, 358
2015-10-24 13:41:33.716781, 378
2015-10-24 13:41:33.717010, 416
2015-10-24 13:41:33.732659, 458
2015-10-24 13:41:33.732911, 480
2015-10-24 13:41:33.733068, 484
2015-10-24 13:41:33.733221, 483
2015-10-24 13:41:33.748671, 483
2015-10-24 13:41:33.748843, 483
2015-10-24 13:41:33.748992, 485
2015-10-24 13:41:33.764664, 490
2015-10-24 13:41:33.764837, 494
2015-10-24 13:41:33.764988, 495
2015-10-24 13:41:33.780950, 497
2015-10-24 13:41:33.781230, 502
2015-10-24 13:41:33.781369, 505
2015-10-24 13:41:33.796937, 508
2015-10-24 13:41:33.797201, 515
2015-10-24 13:41:33.797374, 520
2015-10-24 13:41:33.812779, 523
2015-10-24 13:41:33.812958, 527
2015-10-24 13:41:33.813110, 531
2015-10-24 13:41:33.828775, 537
2015-10-24 13:41:33.828952, 544
2015-10-24 13:41:33.829111, 551
2015-10-24 13:41:33.844864, 559
2015-10-24 13:41:33.845121, 566
2015-10-24 13:41:33.845297, 572
2015-10-24 13:41:33.860743, 581
2015-10-24 13:41:33.860915, 590
2015-10-24 13:41:33.861063, 595
2015-10-24 13:41:33.876937, 599
2015-10-24 13:41:33.877211, 603
2015-10-24 13:41:33.877377, 607
2015-10-24 13:41:33.892699, 607
2015-10-24 13:41:33.892882, 603
2015-10-24 13:41:33.893040, 599
2015-10-24 13:41:33.908759, 595
2015-10-24 13:41:33.908945, 588
2015-10-24 13:41:33.909101, 577
2015-10-24 13:41:33.924700, 565
2015-10-24 13:41:33.924885, 552
2015-10-24 13:41:33.925037, 536
2015-10-24 13:41:33.940546, 519
2015-10-24 13:41:33.940729, 503
2015-10-24 13:41:33.940885, 490
2015-10-24 13:41:33.956575, 479
2015-10-24 13:41:33.956827, 467
2015-10-24 13:41:33.956983, 461
2015-10-24 13:41:33.972539, 456
2015-10-24 13:41:33.972794, 453
2015-10-24 13:41:33.972951, 451
2015-10-24 13:41:33.988633, 452
2015-10-24 13:41:33.988892, 451
2015-10-24 13:41:33.989050, 448
2015-10-24 13:41:33.989197, 448
2015-10-24 13:41:34.004707, 451
2015-10-24 13:41:34.004883, 451
2015-10-24 13:41:34.005039, 450
2015-10-24 13:41:34.020711, 451
2015-10-24 13:41:34.020889, 452
2015-10-24 13:41:34.021043, 455
2015-10-24 13:41:34.036758, 457
2015-10-24 13:41:34.036937, 459
2015-10-24 13:41:34.037092, 461
2015-10-24 13:41:34.052643, 462
2015-10-24 13:41:34.052821, 464
2015-10-24 13:41:34.052970, 467
2015-10-24 13:41:34.068655, 472
2015-10-24 13:41:34.068830, 474
2015-10-24 13:41:34.068978, 475
2015-10-24 13:41:34.084663, 475
2015-10-24 13:41:34.084842, 476
2015-10-24 13:41:34.084997, 474
2015-10-24 13:41:34.100491, 473
2015-10-24 13:41:34.100670, 477
2015-10-24 13:41:34.100825, 480
2015-10-24 13:41:34.116606, 479
2015-10-24 13:41:34.116783, 477
2015-10-24 13:41:34.116938, 478
2015-10-24 13:41:34.132576, 478
2015-10-24 13:41:34.132753, 476
2015-10-24 13:41:34.132907, 478
2015-10-24 13:41:34.148584, 480
2015-10-24 13:41:34.148771, 479
2015-10-24 13:41:34.148926, 474
2015-10-24 13:41:34.164577, 474
2015-10-24 13:41:34.164755, 476
2015-10-24 13:41:34.164906, 477
2015-10-24 13:41:34.180672, 476
2015-10-24 13:41:34.180948, 474
2015-10-24 13:41:34.181137, 477
2015-10-24 13:41:34.196462, 480
2015-10-24 13:41:34.196717, 482
2015-10-24 13:41:34.196873, 485
2015-10-24 13:41:34.212574, 486
2015-10-24 13:41:34.213171, 486
2015-10-24 13:41:34.213296, 485
2015-10-24 13:41:34.228549, 488
2015-10-24 13:41:34.228808, 491
2015-10-24 13:41:34.228973, 492
2015-10-24 13:41:34.229130, 487
2015-10-24 13:41:34.244634, 487
2015-10-24 13:41:34.244812, 491
2015-10-24 13:41:34.244964, 495
2015-10-24 13:41:34.260827, 499
2015-10-24 13:41:34.261062, 503
2015-10-24 13:41:34.261228, 504
2015-10-24 13:41:34.276603, 498
2015-10-24 13:41:34.276776, 492
2015-10-24 13:41:34.276933, 487
2015-10-24 13:41:34.292666, 480
2015-10-24 13:41:34.292845, 478
2015-10-24 13:41:34.292999, 478
2015-10-24 13:41:34.308577, 479
2015-10-24 13:41:34.308754, 480
2015-10-24 13:41:34.308903, 478
2015-10-24 13:41:34.324587, 478
2015-10-24 13:41:34.324764, 480
2015-10-24 13:41:34.324919, 479
2015-10-24 13:41:34.340592, 480
2015-10-24 13:41:34.340769, 485
2015-10-24 13:41:34.340926, 496
2015-10-24 13:41:34.356599, 497
2015-10-24 13:41:34.356781, 511
2015-10-24 13:41:34.356934, 567
2015-10-24 13:41:34.372534, 653
2015-10-24 13:41:34.372711, 745
2015-10-24 13:41:34.372864, 822
2015-10-24 13:41:34.388501, 821
2015-10-24 13:41:34.388687, 769
2015-10-24 13:41:34.388843, 625
2015-10-24 13:41:34.404529, 430
2015-10-24 13:41:34.404717, 361
2015-10-24 13:41:34.404875, 379
2015-10-24 13:41:34.420565, 411
2015-10-24 13:41:34.420752, 452
2015-10-24 13:41:34.420909, 477
2015-10-24 13:41:34.436390, 483
2015-10-24 13:41:34.436639, 481
2015-10-24 13:41:34.436794, 483
2015-10-24 13:41:34.452396, 486
2015-10-24 13:41:34.452646, 489
2015-10-24 13:41:34.452801, 491
2015-10-24 13:41:34.468301, 494
2015-10-24 13:41:34.468500, 499
2015-10-24 13:41:34.468656, 501
2015-10-24 13:41:34.468801, 503
2015-10-24 13:41:34.484535, 506
2015-10-24 13:41:34.484713, 510
2015-10-24 13:41:34.484862, 513
2015-10-24 13:41:34.500534, 518
2015-10-24 13:41:34.500713, 522
2015-10-24 13:41:34.500866, 526
2015-10-24 13:41:34.516477, 530
2015-10-24 13:41:34.516676, 536
2015-10-24 13:41:34.516782, 542
2015-10-24 13:41:34.532508, 548
2015-10-24 13:41:34.532684, 554
2015-10-24 13:41:34.532836, 564
2015-10-24 13:41:34.548582, 574
2015-10-24 13:41:34.548850, 581
2015-10-24 13:41:34.549016, 588
2015-10-24 13:41:34.564484, 596
2015-10-24 13:41:34.564658, 604
2015-10-24 13:41:34.564811, 608
2015-10-24 13:41:34.580541, 609
2015-10-24 13:41:34.580722, 610
2015-10-24 13:41:34.580879, 608
2015-10-24 13:41:34.596581, 605
2015-10-24 13:41:34.596857, 599
2015-10-24 13:41:34.597031, 591
2015-10-24 13:41:34.612464, 582
2015-10-24 13:41:34.612643, 570
2015-10-24 13:41:34.612796, 554
2015-10-24 13:41:34.628494, 540
2015-10-24 13:41:34.628818, 523
2015-10-24 13:41:34.628989, 503
2015-10-24 13:41:34.644409, 489
2015-10-24 13:41:34.644596, 478
2015-10-24 13:41:34.644748, 467
2015-10-24 13:41:34.660409, 458
2015-10-24 13:41:34.660592, 453
2015-10-24 13:41:34.660746, 447
2015-10-24 13:41:34.676347, 443
2015-10-24 13:41:34.676605, 442
2015-10-24 13:41:34.676766, 441
2015-10-24 13:41:34.692321, 443
2015-10-24 13:41:34.692572, 444
2015-10-24 13:41:34.692729, 441
2015-10-24 13:41:34.708316, 442
2015-10-24 13:41:34.708562, 446
2015-10-24 13:41:34.708712, 446
2015-10-24 13:41:34.708863, 447
2015-10-24 13:41:34.724446, 450
2015-10-24 13:41:34.724626, 453
2015-10-24 13:41:34.724776, 456
2015-10-24 13:41:34.740453, 457
2015-10-24 13:41:34.740629, 460
2015-10-24 13:41:34.740784, 462
2015-10-24 13:41:34.756465, 464
2015-10-24 13:41:34.756641, 466
2015-10-24 13:41:34.756793, 467
2015-10-24 13:41:34.772485, 468
2015-10-24 13:41:34.772678, 469
2015-10-24 13:41:34.772834, 472
2015-10-24 13:41:34.788427, 475
2015-10-24 13:41:34.788605, 475
2015-10-24 13:41:34.788756, 473
2015-10-24 13:41:34.804494, 473
2015-10-24 13:41:34.804677, 474
2015-10-24 13:41:34.804837, 475
2015-10-24 13:41:34.820516, 475
2015-10-24 13:41:34.820728, 475
2015-10-24 13:41:34.820836, 476
2015-10-24 13:41:34.836393, 475
2015-10-24 13:41:34.836572, 476
2015-10-24 13:41:34.836723, 476
2015-10-24 13:41:34.852265, 476
2015-10-24 13:41:34.852446, 475
2015-10-24 13:41:34.852602, 475
2015-10-24 13:41:34.868370, 476
2015-10-24 13:41:34.868549, 476
2015-10-24 13:41:34.868702, 473
2015-10-24 13:41:34.884193, 472
2015-10-24 13:41:34.884378, 473
2015-10-24 13:41:34.884533, 476
2015-10-24 13:41:34.900334, 473
2015-10-24 13:41:34.900520, 474
2015-10-24 13:41:34.900672, 477
2015-10-24 13:41:34.916331, 481
2015-10-24 13:41:34.916515, 484
2015-10-24 13:41:34.916670, 485
2015-10-24 13:41:34.932124, 484
2015-10-24 13:41:34.932325, 485
2015-10-24 13:41:34.932476, 486
2015-10-24 13:41:34.948222, 489
2015-10-24 13:41:34.948470, 493
2015-10-24 13:41:34.948627, 490
2015-10-24 13:41:34.964309, 486
2015-10-24 13:41:34.964653, 488
2015-10-24 13:41:34.964846, 494
2015-10-24 13:41:34.965004, 498
2015-10-24 13:41:34.980512, 500
2015-10-24 13:41:34.980713, 502
2015-10-24 13:41:34.980872, 501
2015-10-24 13:41:34.996364, 497
2015-10-24 13:41:34.996541, 492
2015-10-24 13:41:34.996698, 485
2015-10-24 13:41:35.012594, 479
2015-10-24 13:41:35.012827, 476
2015-10-24 13:41:35.012992, 478
2015-10-24 13:41:35.028336, 481
2015-10-24 13:41:35.028512, 480
2015-10-24 13:41:35.028667, 478
2015-10-24 13:41:35.044511, 481
2015-10-24 13:41:35.044761, 484
2015-10-24 13:41:35.044926, 484
2015-10-24 13:41:35.060368, 483
2015-10-24 13:41:35.060542, 490
2015-10-24 13:41:35.060719, 497
2015-10-24 13:41:35.076283, 502
2015-10-24 13:41:35.076459, 537
2015-10-24 13:41:35.076611, 613
2015-10-24 13:41:35.092279, 698
2015-10-24 13:41:35.092453, 796
2015-10-24 13:41:35.092603, 841
2015-10-24 13:41:35.108262, 812
2015-10-24 13:41:35.108444, 718
2015-10-24 13:41:35.108601, 515
2015-10-24 13:41:35.124234, 377
2015-10-24 13:41:35.124432, 369
2015-10-24 13:41:35.124587, 397
2015-10-24 13:41:35.140236, 436
2015-10-24 13:41:35.140424, 471
2015-10-24 13:41:35.140578, 487
2015-10-24 13:41:35.156239, 487
2015-10-24 13:41:35.156421, 482
2015-10-24 13:41:35.156575, 484
2015-10-24 13:41:35.172145, 490
2015-10-24 13:41:35.172396, 492
2015-10-24 13:41:35.172551, 494
2015-10-24 13:41:35.188197, 497
2015-10-24 13:41:35.188451, 502
2015-10-24 13:41:35.188607, 505
2015-10-24 13:41:35.204117, 507
2015-10-24 13:41:35.204369, 511
2015-10-24 13:41:35.204525, 515
2015-10-24 13:41:35.204678, 519
2015-10-24 13:41:35.220292, 522
2015-10-24 13:41:35.220475, 526
2015-10-24 13:41:35.220628, 532
2015-10-24 13:41:35.236278, 537
2015-10-24 13:41:35.236456, 544
2015-10-24 13:41:35.236612, 551
2015-10-24 13:41:35.252262, 557
2015-10-24 13:41:35.252437, 563
2015-10-24 13:41:35.252589, 572
2015-10-24 13:41:35.268095, 582
2015-10-24 13:41:35.268273, 589
2015-10-24 13:41:35.268423, 596
2015-10-24 13:41:35.284237, 605
2015-10-24 13:41:35.284417, 612
2015-10-24 13:41:35.284574, 613
2015-10-24 13:41:35.299955, 612
2015-10-24 13:41:35.300135, 612
2015-10-24 13:41:35.300286, 610
2015-10-24 13:41:35.316197, 607
2015-10-24 13:41:35.316374, 599
2015-10-24 13:41:35.316527, 591
2015-10-24 13:41:35.332245, 583
2015-10-24 13:41:35.332424, 569
2015-10-24 13:41:35.332576, 552
2015-10-24 13:41:35.348037, 538
2015-10-24 13:41:35.348212, 523
2015-10-24 13:41:35.348364, 503
2015-10-24 13:41:35.364163, 489
2015-10-24 13:41:35.364345, 481
2015-10-24 13:41:35.364498, 474
2015-10-24 13:41:35.379884, 465
2015-10-24 13:41:35.380066, 459
2015-10-24 13:41:35.380218, 455
2015-10-24 13:41:35.396197, 451
2015-10-24 13:41:35.396385, 449
2015-10-24 13:41:35.396541, 448
2015-10-24 13:41:35.412041, 450
2015-10-24 13:41:35.412293, 450
2015-10-24 13:41:35.412448, 451
2015-10-24 13:41:35.428063, 453
2015-10-24 13:41:35.428391, 457
2015-10-24 13:41:35.428608, 457
2015-10-24 13:41:35.444113, 456
2015-10-24 13:41:35.444392, 458
2015-10-24 13:41:35.444562, 463
2015-10-24 13:41:35.444710, 466
2015-10-24 13:41:35.460161, 468
2015-10-24 13:41:35.460355, 472
2015-10-24 13:41:35.460460, 472
2015-10-24 13:41:35.476239, 472
2015-10-24 13:41:35.476424, 473
2015-10-24 13:41:35.476585, 476
2015-10-24 13:41:35.492184, 477
2015-10-24 13:41:35.492357, 478
2015-10-24 13:41:35.492509, 479
2015-10-24 13:41:35.508223, 481
2015-10-24 13:41:35.508399, 482
2015-10-24 13:41:35.508553, 481
2015-10-24 13:41:35.524135, 482
2015-10-24 13:41:35.524315, 483
2015-10-24 13:41:35.524471, 484
2015-10-24 13:41:35.540101, 484
2015-10-24 13:41:35.540274, 485
2015-10-24 13:41:35.540424, 484
2015-10-24 13:41:35.556080, 482
2015-10-24 13:41:35.556255, 482
2015-10-24 13:41:35.556412, 483
2015-10-24 13:41:35.572038, 483
2015-10-24 13:41:35.572218, 484
2015-10-24 13:41:35.572369, 485
2015-10-24 13:41:35.588067, 488
2015-10-24 13:41:35.588244, 490
2015-10-24 13:41:35.588396, 490
2015-10-24 13:41:35.604058, 489
2015-10-24 13:41:35.604237, 493
2015-10-24 13:41:35.604486, 494
2015-10-24 13:41:35.620001, 492
2015-10-24 13:41:35.620185, 492
2015-10-24 13:41:35.620339, 494
2015-10-24 13:41:35.636008, 494
2015-10-24 13:41:35.636195, 493
2015-10-24 13:41:35.636349, 496
2015-10-24 13:41:35.652005, 502
2015-10-24 13:41:35.652195, 505
2015-10-24 13:41:35.652349, 505
2015-10-24 13:41:35.667919, 505
2015-10-24 13:41:35.668169, 502
2015-10-24 13:41:35.668325, 495
2015-10-24 13:41:35.683892, 485
2015-10-24 13:41:35.684140, 481
2015-10-24 13:41:35.684297, 481
2015-10-24 13:41:35.699984, 482
2015-10-24 13:41:35.700242, 485
2015-10-24 13:41:35.700398, 487
2015-10-24 13:41:35.700547, 487
2015-10-24 13:41:35.716058, 486
2015-10-24 13:41:35.716236, 485
2015-10-24 13:41:35.716391, 487
2015-10-24 13:41:35.732063, 488
2015-10-24 13:41:35.732244, 492
2015-10-24 13:41:35.732401, 504
2015-10-24 13:41:35.748000, 503
2015-10-24 13:41:35.748183, 519
2015-10-24 13:41:35.748365, 579
2015-10-24 13:41:35.763869, 658
2015-10-24 13:41:35.764056, 749
2015-10-24 13:41:35.764217, 813
2015-10-24 13:41:35.780012, 803
2015-10-24 13:41:35.780192, 747
2015-10-24 13:41:35.780354, 590
2015-10-24 13:41:35.795861, 412
2015-10-24 13:41:35.796043, 369
2015-10-24 13:41:35.796200, 393
2015-10-24 13:41:35.811959, 423
2015-10-24 13:41:35.812141, 460
2015-10-24 13:41:35.812298, 486
2015-10-24 13:41:35.828077, 498
2015-10-24 13:41:35.828261, 494
2015-10-24 13:41:35.828417, 492
2015-10-24 13:41:35.843960, 494
2015-10-24 13:41:35.844144, 498
2015-10-24 13:41:35.844305, 501
2015-10-24 13:41:35.859935, 502
2015-10-24 13:41:35.860125, 506
2015-10-24 13:41:35.860284, 512
2015-10-24 13:41:35.875909, 516
2015-10-24 13:41:35.876097, 519
2015-10-24 13:41:35.876256, 521
2015-10-24 13:41:35.891908, 526
2015-10-24 13:41:35.892100, 530
2015-10-24 13:41:35.892260, 533
2015-10-24 13:41:35.907784, 536
2015-10-24 13:41:35.908040, 542
2015-10-24 13:41:35.908204, 549
2015-10-24 13:41:35.923625, 554
2015-10-24 13:41:35.923828, 560
2015-10-24 13:41:35.923990, 567
2015-10-24 13:41:35.939754, 576
2015-10-24 13:41:35.940009, 584
2015-10-24 13:41:35.940172, 589
2015-10-24 13:41:35.940331, 593
2015-10-24 13:41:35.955928, 600
2015-10-24 13:41:35.956110, 605
2015-10-24 13:41:35.956268, 607
2015-10-24 13:41:35.971946, 608
2015-10-24 13:41:35.972133, 608
2015-10-24 13:41:35.972291, 610
2015-10-24 13:41:35.987952, 607
2015-10-24 13:41:35.988135, 600
2015-10-24 13:41:35.988293, 590
2015-10-24 13:41:36.003908, 580
2015-10-24 13:41:36.004091, 569
2015-10-24 13:41:36.004247, 554
2015-10-24 13:41:36.019735, 535
2015-10-24 13:41:36.019919, 518
2015-10-24 13:41:36.020077, 504
2015-10-24 13:41:36.035877, 489
2015-10-24 13:41:36.036058, 476
2015-10-24 13:41:36.036214, 467
2015-10-24 13:41:36.051837, 460
2015-10-24 13:41:36.052019, 453
2015-10-24 13:41:36.052177, 448
2015-10-24 13:41:36.067853, 449
2015-10-24 13:41:36.068038, 449
2015-10-24 13:41:36.068199, 446
2015-10-24 13:41:36.083889, 445
2015-10-24 13:41:36.084070, 447
2015-10-24 13:41:36.084250, 448
2015-10-24 13:41:36.099808, 446
2015-10-24 13:41:36.099991, 447
2015-10-24 13:41:36.100149, 449
2015-10-24 13:41:36.115858, 451
2015-10-24 13:41:36.116044, 452
2015-10-24 13:41:36.116199, 457
2015-10-24 13:41:36.131777, 461
2015-10-24 13:41:36.131966, 459
2015-10-24 13:41:36.132125, 457
2015-10-24 13:41:36.147858, 460
2015-10-24 13:41:36.148044, 466
2015-10-24 13:41:36.148197, 467
2015-10-24 13:41:36.163694, 468
2015-10-24 13:41:36.163951, 470
2015-10-24 13:41:36.164114, 472
2015-10-24 13:41:36.179784, 471
2015-10-24 13:41:36.180100, 471
2015-10-24 13:41:36.180266, 473
2015-10-24 13:41:36.195702, 475
2015-10-24 13:41:36.195962, 476
2015-10-24 13:41:36.196122, 476
2015-10-24 13:41:36.196289, 474
2015-10-24 13:41:36.211964, 474
2015-10-24 13:41:36.212217, 473
2015-10-24 13:41:36.212376, 472
2015-10-24 13:41:36.227871, 473
2015-10-24 13:41:36.228052, 473
2015-10-24 13:41:36.228288, 472
2015-10-24 13:41:36.243872, 470
2015-10-24 13:41:36.244056, 468
2015-10-24 13:41:36.244212, 469
2015-10-24 13:41:36.260056, 472
2015-10-24 13:41:36.260305, 476
2015-10-24 13:41:36.260468, 478
2015-10-24 13:41:36.275855, 478
2015-10-24 13:41:36.276039, 479
2015-10-24 13:41:36.276197, 482
2015-10-24 13:41:36.291947, 484
2015-10-24 13:41:36.292128, 485
2015-10-24 13:41:36.292284, 482
2015-10-24 13:41:36.307891, 481
2015-10-24 13:41:36.308072, 483
2015-10-24 13:41:36.308227, 484
2015-10-24 13:41:36.323920, 487
2015-10-24 13:41:36.324100, 493
2015-10-24 13:41:36.324260, 494
2015-10-24 13:41:36.339837, 491
2015-10-24 13:41:36.340018, 487
2015-10-24 13:41:36.340171, 483
2015-10-24 13:41:36.355781, 471
2015-10-24 13:41:36.355966, 465
2015-10-24 13:41:36.356120, 468
2015-10-24 13:41:36.371733, 471
2015-10-24 13:41:36.371923, 470
2015-10-24 13:41:36.372084, 471
2015-10-24 13:41:36.387706, 470
2015-10-24 13:41:36.387894, 468
2015-10-24 13:41:36.388053, 468
2015-10-24 13:41:36.403604, 469
2015-10-24 13:41:36.403857, 471
2015-10-24 13:41:36.404019, 480
2015-10-24 13:41:36.419607, 487
2015-10-24 13:41:36.419861, 490
2015-10-24 13:41:36.420025, 522
2015-10-24 13:41:36.435662, 594
2015-10-24 13:41:36.435918, 673
2015-10-24 13:41:36.436078, 758
2015-10-24 13:41:36.436231, 797
2015-10-24 13:41:36.451635, 768
2015-10-24 13:41:36.451816, 686
2015-10-24 13:41:36.451973, 507
2015-10-24 13:41:36.467408, 368
2015-10-24 13:41:36.467530, 355
2015-10-24 13:41:36.467628, 379
2015-10-24 13:41:36.483753, 413
2015-10-24 13:41:36.483937, 451
2015-10-24 13:41:36.484096, 471
2015-10-24 13:41:36.499773, 473
2015-10-24 13:41:36.499949, 471
2015-10-24 13:41:36.500104, 470
2015-10-24 13:41:36.515548, 473
2015-10-24 13:41:36.515786, 477
2015-10-24 13:41:36.516004, 480
2015-10-24 13:41:36.531770, 481
2015-10-24 13:41:36.531950, 483
2015-10-24 13:41:36.532104, 488
2015-10-24 13:41:36.547538, 494
2015-10-24 13:41:36.547719, 500
2015-10-24 13:41:36.547888, 500
2015-10-24 13:41:36.563729, 502
2015-10-24 13:41:36.563908, 507
2015-10-24 13:41:36.564059, 512
2015-10-24 13:41:36.579653, 515
2015-10-24 13:41:36.579837, 520
2015-10-24 13:41:36.579993, 528
2015-10-24 13:41:36.595739, 533
2015-10-24 13:41:36.596103, 537
2015-10-24 13:41:36.596296, 545
2015-10-24 13:41:36.611694, 556
2015-10-24 13:41:36.611887, 562
2015-10-24 13:41:36.612040, 569
2015-10-24 13:41:36.627476, 577
2015-10-24 13:41:36.627658, 583
2015-10-24 13:41:36.627818, 588
2015-10-24 13:41:36.643531, 591
2015-10-24 13:41:36.643784, 592
2015-10-24 13:41:36.643944, 590
2015-10-24 13:41:36.659510, 585
2015-10-24 13:41:36.659765, 579
2015-10-24 13:41:36.659928, 572
2015-10-24 13:41:36.675555, 565
2015-10-24 13:41:36.675818, 551
2015-10-24 13:41:36.675973, 537
2015-10-24 13:41:36.676124, 522
2015-10-24 13:41:36.691683, 504
2015-10-24 13:41:36.691864, 487
2015-10-24 13:41:36.692025, 473
2015-10-24 13:41:36.707680, 463
2015-10-24 13:41:36.707863, 452
2015-10-24 13:41:36.708019, 442
2015-10-24 13:41:36.723732, 436
2015-10-24 13:41:36.723911, 434
2015-10-24 13:41:36.724064, 430
2015-10-24 13:41:36.739634, 428
2015-10-24 13:41:36.739819, 429
2015-10-24 13:41:36.739982, 431
2015-10-24 13:41:36.755628, 431
2015-10-24 13:41:36.755809, 429
2015-10-24 13:41:36.755969, 429
2015-10-24 13:41:36.771684, 431
2015-10-24 13:41:36.771862, 430
2015-10-24 13:41:36.772016, 431
2015-10-24 13:41:36.787605, 435
2015-10-24 13:41:36.787789, 437
2015-10-24 13:41:36.787950, 438
2015-10-24 13:41:36.803602, 442
2015-10-24 13:41:36.803784, 447
2015-10-24 13:41:36.803942, 450
2015-10-24 13:41:36.819582, 449
2015-10-24 13:41:36.819768, 452
2015-10-24 13:41:36.819927, 456
2015-10-24 13:41:36.835638, 458
2015-10-24 13:41:36.835828, 459
2015-10-24 13:41:36.835988, 461
2015-10-24 13:41:36.851503, 464
2015-10-24 13:41:36.851693, 465
2015-10-24 13:41:36.851855, 465
2015-10-24 13:41:36.867592, 466
2015-10-24 13:41:36.867875, 466
2015-10-24 13:41:36.868039, 465
2015-10-24 13:41:36.883354, 465
2015-10-24 13:41:36.883607, 466
2015-10-24 13:41:36.883764, 467
2015-10-24 13:41:36.899365, 466
2015-10-24 13:41:36.899524, 465
2015-10-24 13:41:36.899624, 465
2015-10-24 13:41:36.915194, 466
2015-10-24 13:41:36.915380, 464
2015-10-24 13:41:36.915491, 463
2015-10-24 13:41:36.931147, 466
2015-10-24 13:41:36.931291, 470
2015-10-24 13:41:36.931444, 472
2015-10-24 13:41:36.931605, 470
2015-10-24 13:41:36.947135, 472
2015-10-24 13:41:36.947190, 476
2015-10-24 13:41:36.947236, 476
2015-10-24 13:41:36.963168, 475
2015-10-24 13:41:36.963263, 477
2015-10-24 13:41:36.963339, 478
2015-10-24 13:41:36.979141, 473
2015-10-24 13:41:36.979198, 475
2015-10-24 13:41:36.979244, 481
2015-10-24 13:41:36.995190, 481
2015-10-24 13:41:36.995251, 484
2015-10-24 13:41:36.995296, 487
2015-10-24 13:41:37.011485, 491
2015-10-24 13:41:37.011687, 486
2015-10-24 13:41:37.011778, 479
2015-10-24 13:41:37.027536, 475
2015-10-24 13:41:37.027716, 469
2015-10-24 13:41:37.027876, 467
2015-10-24 13:41:37.043504, 468
2015-10-24 13:41:37.043689, 468
2015-10-24 13:41:37.043850, 468
2015-10-24 13:41:37.059511, 468
2015-10-24 13:41:37.059698, 472
2015-10-24 13:41:37.059857, 472
2015-10-24 13:41:37.075533, 470
2015-10-24 13:41:37.075720, 469
2015-10-24 13:41:37.075885, 475
2015-10-24 13:41:37.091455, 487
2015-10-24 13:41:37.091641, 487
2015-10-24 13:41:37.091798, 501
2015-10-24 13:41:37.107520, 561
2015-10-24 13:41:37.107714, 648
2015-10-24 13:41:37.107905, 742
2015-10-24 13:41:37.123461, 816
2015-10-24 13:41:37.123649, 810
2015-10-24 13:41:37.123811, 759
2015-10-24 13:41:37.139353, 614
2015-10-24 13:41:37.139607, 419
2015-10-24 13:41:37.139764, 349
2015-10-24 13:41:37.155360, 367
2015-10-24 13:41:37.155617, 403
2015-10-24 13:41:37.155783, 445
2015-10-24 13:41:37.171333, 472
2015-10-24 13:41:37.171594, 477
2015-10-24 13:41:37.171757, 474
2015-10-24 13:41:37.171918, 472
2015-10-24 13:41:37.187538, 477
2015-10-24 13:41:37.187726, 481
2015-10-24 13:41:37.187889, 481
2015-10-24 13:41:37.203501, 485
2015-10-24 13:41:37.203684, 493
2015-10-24 13:41:37.203846, 497
2015-10-24 13:41:37.219506, 498
2015-10-24 13:41:37.219691, 500
2015-10-24 13:41:37.219853, 504
2015-10-24 13:41:37.235518, 508
2015-10-24 13:41:37.235707, 512
2015-10-24 13:41:37.235864, 518
2015-10-24 13:41:37.251517, 524
2015-10-24 13:41:37.251693, 528
2015-10-24 13:41:37.251845, 534
2015-10-24 13:41:37.267430, 540
2015-10-24 13:41:37.267616, 548
2015-10-24 13:41:37.267778, 554
2015-10-24 13:41:37.283431, 562
2015-10-24 13:41:37.283618, 571
2015-10-24 13:41:37.283779, 579
2015-10-24 13:41:37.299394, 586
2015-10-24 13:41:37.299583, 594
2015-10-24 13:41:37.299742, 600
2015-10-24 13:41:37.315402, 604
2015-10-24 13:41:37.315591, 607
2015-10-24 13:41:37.315754, 609
2015-10-24 13:41:37.331381, 608
2015-10-24 13:41:37.331572, 604
2015-10-24 13:41:37.331735, 598
2015-10-24 13:41:37.347629, 590
2015-10-24 13:41:37.347904, 579
2015-10-24 13:41:37.348016, 567
2015-10-24 13:41:37.363412, 552
2015-10-24 13:41:37.363601, 532
2015-10-24 13:41:37.363754, 515
2015-10-24 13:41:37.379395, 499
2015-10-24 13:41:37.379777, 486
2015-10-24 13:41:37.379958, 477
2015-10-24 13:41:37.395262, 466
2015-10-24 13:41:37.395516, 457
2015-10-24 13:41:37.395679, 450
2015-10-24 13:41:37.411248, 447
2015-10-24 13:41:37.411505, 446
2015-10-24 13:41:37.411667, 446
2015-10-24 13:41:37.411823, 444
2015-10-24 13:41:37.427613, 445
2015-10-24 13:41:37.427849, 446
2015-10-24 13:41:37.428013, 445
2015-10-24 13:41:37.443455, 443
2015-10-24 13:41:37.443633, 445
2015-10-24 13:41:37.443790, 449
2015-10-24 13:41:37.459438, 451
2015-10-24 13:41:37.459609, 453
2015-10-24 13:41:37.459758, 457
2015-10-24 13:41:37.475384, 457
2015-10-24 13:41:37.475565, 457
2015-10-24 13:41:37.475724, 460
2015-10-24 13:41:37.491453, 462
2015-10-24 13:41:37.491727, 463
2015-10-24 13:41:37.491884, 463
2015-10-24 13:41:37.507208, 467
2015-10-24 13:41:37.507389, 469
2015-10-24 13:41:37.507549, 470
2015-10-24 13:41:37.523518, 474
2015-10-24 13:41:37.523598, 475
2015-10-24 13:41:37.523651, 476
2015-10-24 13:41:37.539332, 475
2015-10-24 13:41:37.539515, 473
2015-10-24 13:41:37.539674, 474
2015-10-24 13:41:37.555185, 475
2015-10-24 13:41:37.555372, 475
2015-10-24 13:41:37.555533, 476
2015-10-24 13:41:37.571290, 478
2015-10-24 13:41:37.571480, 479
2015-10-24 13:41:37.571636, 476
2015-10-24 13:41:37.587268, 476
2015-10-24 13:41:37.587458, 478
2015-10-24 13:41:37.587619, 477
2015-10-24 13:41:37.603222, 473
2015-10-24 13:41:37.603413, 476
2015-10-24 13:41:37.603595, 478
2015-10-24 13:41:37.619230, 478
2015-10-24 13:41:37.619454, 476
2015-10-24 13:41:37.619613, 476
2015-10-24 13:41:37.635089, 477
2015-10-24 13:41:37.635291, 477
2015-10-24 13:41:37.635450, 479
2015-10-24 13:41:37.651207, 482
2015-10-24 13:41:37.651467, 485
2015-10-24 13:41:37.651622, 487
2015-10-24 13:41:37.667160, 488
2015-10-24 13:41:37.667417, 490
2015-10-24 13:41:37.667579, 491
2015-10-24 13:41:37.667735, 490
2015-10-24 13:41:37.683457, 486
2015-10-24 13:41:37.683706, 488
2015-10-24 13:41:37.683833, 492
2015-10-24 13:41:37.699173, 495
2015-10-24 13:41:37.699291, 499
2015-10-24 13:41:37.699389, 503
2015-10-24 13:41:37.715361, 503
2015-10-24 13:41:37.715552, 496
2015-10-24 13:41:37.715715, 491
2015-10-24 13:41:37.731283, 486
2015-10-24 13:41:37.731466, 479
2015-10-24 13:41:37.731628, 478
2015-10-24 13:41:37.747316, 478
2015-10-24 13:41:37.747495, 480
2015-10-24 13:41:37.747650, 481
2015-10-24 13:41:37.763364, 481
2015-10-24 13:41:37.763628, 483
2015-10-24 13:41:37.763793, 484
2015-10-24 13:41:37.779232, 481
2015-10-24 13:41:37.779416, 478
2015-10-24 13:41:37.779575, 481
2015-10-24 13:41:37.795343, 490
2015-10-24 13:41:37.795613, 492
2015-10-24 13:41:37.795785, 519
2015-10-24 13:41:37.811227, 590
2015-10-24 13:41:37.811413, 674
2015-10-24 13:41:37.811573, 770
2015-10-24 13:41:37.827202, 832
2015-10-24 13:41:37.827390, 812
2015-10-24 13:41:37.827551, 742
2015-10-24 13:41:37.843173, 566
2015-10-24 13:41:37.843363, 393
2015-10-24 13:41:37.843523, 359
2015-10-24 13:41:37.859175, 383
2015-10-24 13:41:37.859365, 421
2015-10-24 13:41:37.859527, 463
2015-10-24 13:41:37.875194, 485
2015-10-24 13:41:37.875461, 486
2015-10-24 13:41:37.875619, 482
2015-10-24 13:41:37.891041, 485
