timestamp,raw_value,wavelet_value
datetime,int,float
T,,
2015-10-27 17:26:23.189223,515,468.40407989214964
2015-10-27 17:26:23.189289,513,468.40407989214964
2015-10-27 17:26:23.189351,514,468.40407989214964
2015-10-27 17:26:23.205166,515,468.40407989214964
2015-10-27 17:26:23.205257,512,468.40407989214964
2015-10-27 17:26:23.205323,512,468.40407989214964
2015-10-27 17:26:23.221545,515,468.40407989214964
2015-10-27 17:26:23.221653,516,468.40407989214964
2015-10-27 17:26:23.221721,516,468.40407989214964
2015-10-27 17:26:23.237310,516,468.40407989214958
2015-10-27 17:26:23.237404,516,468.40407989214958
2015-10-27 17:26:23.237470,516,468.40407989214958
2015-10-27 17:26:23.253332,517,468.40407989214958
2015-10-27 17:26:23.253424,517,468.40407989214958
2015-10-27 17:26:23.253488,517,468.40407989214964
2015-10-27 17:26:23.269259,515,468.40407989214964
2015-10-27 17:26:23.269349,517,468.40407989214964
2015-10-27 17:26:23.269414,519,468.4040798921497
2015-10-27 17:26:23.285418,520,468.4040798921497
2015-10-27 17:26:23.285537,520,468.4040798921497
2015-10-27 17:26:23.285602,522,468.4040798921497
2015-10-27 17:26:23.301087,521,468.4040798921497
2015-10-27 17:26:23.301179,523,468.40407989214975
2015-10-27 17:26:23.301264,525,468.40407989214975
2015-10-27 17:26:23.317241,523,468.40407989214975
2015-10-27 17:26:23.317333,523,468.40407989214975
2015-10-27 17:26:23.317410,526,468.4040798921497
2015-10-27 17:26:23.333232,526,468.40407989214975
2015-10-27 17:26:23.333324,526,468.40407989214975
2015-10-27 17:26:23.333388,527,468.40407989214975
2015-10-27 17:26:23.349083,528,468.40407989214975
2015-10-27 17:26:23.349240,530,468.40407989214975
2015-10-27 17:26:23.349315,532,468.40407989214975
2015-10-27 17:26:23.365147,532,468.40407989214975
2015-10-27 17:26:23.365241,532,468.40407989214975
2015-10-27 17:26:23.365306,532,468.40407989214975
2015-10-27 17:26:23.381304,532,468.40407989214975
2015-10-27 17:26:23.381399,532,468.40407989214975
2015-10-27 17:26:23.381464,531,468.40407989214981
2015-10-27 17:26:23.397094,532,468.40407989214981
2015-10-27 17:26:23.397254,532,468.40407989214981
2015-10-27 17:26:23.397330,536,468.40407989214981
2015-10-27 17:26:23.413319,540,468.40407989214981
2015-10-27 17:26:23.413492,538,468.40407989214981
2015-10-27 17:26:23.413622,540,468.40407989214981
2015-10-27 17:26:23.429274,542,468.40407989214981
2015-10-27 17:26:23.429408,543,468.40407989214981
2015-10-27 17:26:23.429474,545,468.40407989214981
2015-10-27 17:26:23.429537,546,468.40407989214981
2015-10-27 17:26:23.445092,548,468.40407989214981
2015-10-27 17:26:23.445183,551,468.40407989214981
2015-10-27 17:26:23.445250,552,468.40407989214981
2015-10-27 17:26:23.461240,553,468.40407989214981
2015-10-27 17:26:23.461330,551,468.40407989214981
2015-10-27 17:26:23.461396,543,468.40407989214981
2015-10-27 17:26:23.477072,534,468.40407989214981
2015-10-27 17:26:23.477162,532,468.40407989214981
2015-10-27 17:26:23.477227,531,468.40407989214981
2015-10-27 17:26:23.493198,531,468.40407989214981
2015-10-27 17:26:23.493287,532,468.40407989214981
2015-10-27 17:26:23.493352,532,468.40407989214981
2015-10-27 17:26:23.509246,531,468.40407989214981
2015-10-27 17:26:23.509336,532,468.40407989214981
2015-10-27 17:26:23.509401,530,468.40407989214981
2015-10-27 17:26:23.525072,530,468.40407989214981
2015-10-27 17:26:23.525162,531,468.40407989214981
2015-10-27 17:26:23.525228,531,468.40407989214981
2015-10-27 17:26:23.541215,530,468.40407989214981
2015-10-27 17:26:23.541305,530,468.40407989214981
2015-10-27 17:26:23.541370,530,468.40407989214981
2015-10-27 17:26:23.557064,530,468.40407989214981
2015-10-27 17:26:23.557153,534,468.40407989214981
2015-10-27 17:26:23.557218,546,468.40407989214981
2015-10-27 17:26:23.573051,579,468.40407989214981
2015-10-27 17:26:23.573146,660,468.40407989214981
2015-10-27 17:26:23.573212,747,468.40407989214981
2015-10-27 17:26:23.589027,742,468.40407989214981
2015-10-27 17:26:23.589133,645,468.40407989214981
2015-10-27 17:26:23.589232,483,468.40407989214981
2015-10-27 17:26:23.605030,375,468.40407989214981
2015-10-27 17:26:23.605187,269,468.47292421586678
2015-10-27 17:26:23.605313,280,468.55271472901029
2015-10-27 17:26:23.621123,390,468.63058257918641
2015-10-27 17:26:23.621218,473,468.70659643292981
2015-10-27 17:26:23.621283,512,468.78082172540866
2015-10-27 17:26:23.637233,533,468.85332084829491
2015-10-27 17:26:23.637453,545,468.92415332467812
2015-10-27 17:26:23.637532,551,468.99337597205255
2015-10-27 17:26:23.653130,554,469.06104305431751
2015-10-27 17:26:23.653240,556,469.1272064236432
2015-10-27 17:26:23.653306,558,469.19191565298371
2015-10-27 17:26:23.669165,560,469.25521815994728
2015-10-27 17:26:23.669276,559,469.31715932267502
2015-10-27 17:26:23.669343,562,469.3777825883235
2015-10-27 17:26:23.685131,566,469.43712957469518
2015-10-27 17:26:23.685240,570,469.49524016551743
2015-10-27 17:26:23.685306,570,469.55215259982788
2015-10-27 17:26:23.685368,571,469.60790355588705
2015-10-27 17:26:23.700953,571,469.66252823000571
2015-10-27 17:26:23.701008,571,469.71606041064194
2015-10-27 17:26:23.701046,573,469.78217707465677
2015-10-27 17:26:23.716956,573,469.84829373867154
2015-10-27 17:26:23.717010,575,470.17130319445079
2015-10-27 17:26:23.717060,579,470.8877042572438
2015-10-27 17:26:23.732963,582,471.77969905685063
2015-10-27 17:26:23.733094,582,472.67169385645735
2015-10-27 17:26:23.733150,586,473.56368865606424
2015-10-27 17:26:23.748917,592,474.45568345567096
2015-10-27 17:26:23.749040,596,475.3476782552778
2015-10-27 17:26:23.749115,602,476.23967305488458
2015-10-27 17:26:23.764981,609,477.13166785449141
2015-10-27 17:26:23.765108,613,478.02366265409819
2015-10-27 17:26:23.765149,620,478.91565745370502
2015-10-27 17:26:23.780879,630,479.8076522533118
2015-10-27 17:26:23.780933,641,480.69964705291864
2015-10-27 17:26:23.780970,649,481.59164185252536
2015-10-27 17:26:23.797059,656,482.48363665213225
2015-10-27 17:26:23.797153,663,483.37563145173897
2015-10-27 17:26:23.797219,670,484.2676262513458
2015-10-27 17:26:23.813209,676,485.15962105095258
2015-10-27 17:26:23.813363,679,486.05161585055941
2015-10-27 17:26:23.813432,680,486.94361065016619
2015-10-27 17:26:23.829227,677,487.83560544977303
2015-10-27 17:26:23.829322,673,488.7276002493798
2015-10-27 17:26:23.829387,667,489.61959504898664
2015-10-27 17:26:23.844962,658,490.51158984859336
2015-10-27 17:26:23.845032,645,491.40358464820025
2015-10-27 17:26:23.845078,630,492.29557944780709
2015-10-27 17:26:23.860986,614,493.18757424741381
2015-10-27 17:26:23.861045,599,494.07956904702064
2015-10-27 17:26:23.861084,580,494.97156384662748
2015-10-27 17:26:23.877263,560,495.86355864623431
2015-10-27 17:26:23.877397,542,496.75555344584109
2015-10-27 17:26:23.877463,526,497.64754824544792
2015-10-27 17:26:23.893185,511,498.53954304505476
2015-10-27 17:26:23.893333,498,499.43153784466153
2015-10-27 17:26:23.893399,487,500.32353264426837
2015-10-27 17:26:23.909107,478,501.2155274438752
2015-10-27 17:26:23.909216,471,502.10752224348204
2015-10-27 17:26:23.909283,466,502.99951704308882
2015-10-27 17:26:23.925181,463,503.89151184269565
2015-10-27 17:26:23.925341,462,504.78350664230248
2015-10-27 17:26:23.925408,459,505.67550144190932
2015-10-27 17:26:23.925470,456,506.5674962415161
2015-10-27 17:26:23.941238,453,507.45949104112293
2015-10-27 17:26:23.941428,453,508.35148584072977
2015-10-27 17:26:23.941522,454,509.2434806403366
2015-10-27 17:26:23.957020,456,510.13547543994338
2015-10-27 17:26:23.957095,457,511.02747023955021
2015-10-27 17:26:23.957148,459,511.91946503915705
2015-10-27 17:26:23.973190,458,512.81145983876377
2015-10-27 17:26:23.973280,461,513.70345463837066
2015-10-27 17:26:23.973345,463,514.59544943797755
2015-10-27 17:26:23.989098,465,515.48744423758421
2015-10-27 17:26:23.989187,467,516.3794390371911
2015-10-27 17:26:23.989252,469,517.27143383679777
2015-10-27 17:26:24.005025,470,518.16342863640466
2015-10-27 17:26:24.005164,471,519.05542343601144
2015-10-27 17:26:24.005270,472,519.94741823561822
2015-10-27 17:26:24.021234,476,520.83941303522511
2015-10-27 17:26:24.021325,478,521.73140783483177
2015-10-27 17:26:24.021449,480,522.62340263443855
2015-10-27 17:26:24.037115,480,523.51539743404533
2015-10-27 17:26:24.037205,481,524.40739223365222
2015-10-27 17:26:24.037271,484,525.29938703325888
2015-10-27 17:26:24.053198,485,526.19138183286577
2015-10-27 17:26:24.053312,483,527.08337663247255
2015-10-27 17:26:24.053379,481,527.97537143207933
2015-10-27 17:26:24.069064,481,528.86736623168611
2015-10-27 17:26:24.069159,484,529.75936103129288
2015-10-27 17:26:24.069224,484,530.65135583089977
2015-10-27 17:26:24.085122,484,531.54335063050644
2015-10-27 17:26:24.085214,484,532.43534543011333
2015-10-27 17:26:24.085280,483,533.32734022972011
2015-10-27 17:26:24.101141,484,534.21933502932688
2015-10-27 17:26:24.101262,484,535.11132982893378
2015-10-27 17:26:24.101326,482,536.00332462854055
2015-10-27 17:26:24.117123,480,536.89531942814733
2015-10-27 17:26:24.117215,479,537.78731422775411
2015-10-27 17:26:24.117281,479,538.67930902736089
2015-10-27 17:26:24.132877,479,539.51553992475692
2015-10-27 17:26:24.132986,480,540.34141806034904
2015-10-27 17:26:24.133053,482,541.16729619594093
2015-10-27 17:26:24.149081,482,541.99317433153294
2015-10-27 17:26:24.149190,480,542.81905246712495
2015-10-27 17:26:24.149256,478,543.64493060271695
2015-10-27 17:26:24.164905,481,544.47080873830896
2015-10-27 17:26:24.165141,483,545.29668687390085
2015-10-27 17:26:24.165358,483,546.12256500949297
2015-10-27 17:26:24.165441,481,546.94844314508487
2015-10-27 17:26:24.180947,479,547.77432128067699
2015-10-27 17:26:24.181037,480,548.60019941626888
2015-10-27 17:26:24.181104,482,549.42607755186089
2015-10-27 17:26:24.196975,482,550.25195568745289
2015-10-27 17:26:24.197131,481,551.0778338230449
2015-10-27 17:26:24.197224,480,551.9037119586369
2015-10-27 17:26:24.212959,480,552.7295900942288
2015-10-27 17:26:24.213105,481,553.5554682298208
2015-10-27 17:26:24.213177,480,554.38134636541281
2015-10-27 17:26:24.228893,480,555.2072245010047
2015-10-27 17:26:24.228947,483,556.03310263659682
2015-10-27 17:26:24.228984,486,556.85898077218872
2015-10-27 17:26:24.244835,486,557.42796611601636
2015-10-27 17:26:24.244893,487,557.60355985283013
2015-10-27 17:26:24.244931,486,557.60355985283013
2015-10-27 17:26:24.260862,485,557.60355985283013
2015-10-27 17:26:24.260918,484,557.60355985283013
2015-10-27 17:26:24.260955,482,557.60355985283013
2015-10-27 17:26:24.276815,484,557.60355985283013
2015-10-27 17:26:24.276870,488,557.60355985283013
2015-10-27 17:26:24.276906,490,557.60355985283013
2015-10-27 17:26:24.292838,489,557.60355985283013
2015-10-27 17:26:24.292934,487,557.60355985283013
2015-10-27 17:26:24.292996,488,557.60355985283013
2015-10-27 17:26:24.308808,489,557.60355985283013
2015-10-27 17:26:24.308873,493,557.60355985283013
2015-10-27 17:26:24.308918,495,557.60355985283013
2015-10-27 17:26:24.324829,496,557.60355985283013
2015-10-27 17:26:24.324897,495,557.60355985283013
2015-10-27 17:26:24.324943,494,557.60355985283013
2015-10-27 17:26:24.340806,494,557.60355985283013
2015-10-27 17:26:24.340863,496,557.60355985283013
2015-10-27 17:26:24.340901,496,557.60355985283013
2015-10-27 17:26:24.356812,498,557.60355985283013
2015-10-27 17:26:24.356879,501,557.60355985283013
2015-10-27 17:26:24.356918,501,557.60355985283013
2015-10-27 17:26:24.372796,502,557.60355985283013
2015-10-27 17:26:24.372877,504,557.60355985283013
2015-10-27 17:26:24.372922,504,557.60355985283013
2015-10-27 17:26:24.388994,507,557.60355985283013
2015-10-27 17:26:24.389103,510,557.60355985283013
2015-10-27 17:26:24.389223,507,557.60355985283013
2015-10-27 17:26:24.404937,499,557.60355985283013
2015-10-27 17:26:24.405090,493,557.60355985283013
2015-10-27 17:26:24.405208,491,557.60355985283013
2015-10-27 17:26:24.405335,491,557.60355985283013
2015-10-27 17:26:24.420974,492,557.60355985283013
2015-10-27 17:26:24.421066,492,557.60355985283013
2015-10-27 17:26:24.421159,492,557.60355985283013
2015-10-27 17:26:24.437130,494,557.60355985283013
2015-10-27 17:26:24.437221,491,557.60355985283013
2015-10-27 17:26:24.437285,492,557.60355985283013
2015-10-27 17:26:24.452829,493,557.60355985283013
2015-10-27 17:26:24.452919,494,557.60355985283013
2015-10-27 17:26:24.452984,496,557.60355985283013
2015-10-27 17:26:24.468951,497,557.60355985283013
2015-10-27 17:26:24.469041,498,557.60355985283013
2015-10-27 17:26:24.469107,500,557.60355985283013
2015-10-27 17:26:24.485109,501,557.60355985283013
2015-10-27 17:26:24.485225,506,557.60355985283013
2015-10-27 17:26:24.485290,520,557.60355985283013
2015-10-27 17:26:24.500988,571,557.60355985283013
2015-10-27 17:26:24.501078,663,557.60355985283013
2015-10-27 17:26:24.501143,717,557.60355985283013
2015-10-27 17:26:24.516908,684,557.60355985283013
2015-10-27 17:26:24.517000,565,557.60355985283013
2015-10-27 17:26:24.517065,418,557.60355985283013
2015-10-27 17:26:24.532985,315,557.48848496038761
2015-10-27 17:26:24.533142,229,557.08740346899208
2015-10-27 17:26:24.533267,288,556.72126254868522
2015-10-27 17:26:24.548961,398,556.35512162837836
2015-10-27 17:26:24.549052,461,555.98898070807172
2015-10-27 17:26:24.549117,492,555.62283978776486
2015-10-27 17:26:24.565141,512,555.256698867458
2015-10-27 17:26:24.565237,522,554.89055794715125
2015-10-27 17:26:24.565324,525,554.5244170268445
2015-10-27 17:26:24.580843,525,554.15827610653764
2015-10-27 17:26:24.580943,527,553.79213518623089
2015-10-27 17:26:24.581020,528,553.42599426592415
2015-10-27 17:26:24.596821,529,553.05985334561728
2015-10-27 17:26:24.597115,530,552.69371242531054
2015-10-27 17:26:24.597248,533,552.32757150500379
2015-10-27 17:26:24.613011,536,551.96143058469693
2015-10-27 17:26:24.613139,538,551.59528966439018
2015-10-27 17:26:24.613205,539,551.22914874408343
2015-10-27 17:26:24.628977,539,550.86300782377668
2015-10-27 17:26:24.629086,541,550.49686690346994
2015-10-27 17:26:24.629152,544,550.13072598316307
2015-10-27 17:26:24.645089,547,549.76458506285621
2015-10-27 17:26:24.645258,550,549.39844414254935
2015-10-27 17:26:24.645448,553,549.10731095400831
2015-10-27 17:26:24.661066,555,548.84656077222428
2015-10-27 17:26:24.661187,554,548.57545782863622
2015-10-27 17:26:24.661366,558,548.30435488504804
2015-10-27 17:26:24.661480,563,548.03325194145998
2015-10-27 17:26:24.677040,570,547.76214899787192
2015-10-27 17:26:24.677131,576,547.49104605428374
2015-10-27 17:26:24.677195,580,547.21994311069579
2015-10-27 17:26:24.692924,584,546.94884016710762
2015-10-27 17:26:24.693013,590,546.67773722351967
2015-10-27 17:26:24.693076,600,546.4066342799315
2015-10-27 17:26:24.708799,611,546.13553133634332
2015-10-27 17:26:24.708890,620,545.86442839275537
2015-10-27 17:26:24.708955,627,545.5933254491672
2015-10-27 17:26:24.725032,634,545.32222250557913
2015-10-27 17:26:24.725123,644,545.05111956199107
2015-10-27 17:26:24.725187,650,544.7800166184029
2015-10-27 17:26:24.741069,654,544.50891367481483
2015-10-27 17:26:24.741160,658,544.23781073122677
2015-10-27 17:26:24.741225,658,543.96670778763882
2015-10-27 17:26:24.756918,656,543.69560484405065
2015-10-27 17:26:24.757008,654,543.4245019004627
2015-10-27 17:26:24.757073,649,543.15339895687464
2015-10-27 17:26:24.772995,641,542.88229601328658
2015-10-27 17:26:24.773087,629,542.61119306969852
2015-10-27 17:26:24.773152,616,542.34009012611045
2015-10-27 17:26:24.788927,599,542.06898718252251
2015-10-27 17:26:24.789021,579,541.79788423893433
2015-10-27 17:26:24.789086,557,541.52678129534638
2015-10-27 17:26:24.804851,540,541.25567835175821
2015-10-27 17:26:24.804941,523,540.98457540817026
2015-10-27 17:26:24.805006,504,540.7134724645822
2015-10-27 17:26:24.820955,488,540.44236952099413
2015-10-27 17:26:24.821080,476,540.17126657740607
2015-10-27 17:26:24.821145,467,539.90016363381801
2015-10-27 17:26:24.836858,459,539.62906069023006
2015-10-27 17:26:24.836950,453,539.35795774664189
2015-10-27 17:26:24.837014,447,539.08685480305394
2015-10-27 17:26:24.852837,445,538.81575185946599
2015-10-27 17:26:24.852931,446,538.54464891587781
2015-10-27 17:26:24.852996,445,538.27354597228987
2015-10-27 17:26:24.868809,440,538.00244302870169
2015-10-27 17:26:24.868916,438,537.73134008511374
2015-10-27 17:26:24.868982,437,537.46023714152579
2015-10-27 17:26:24.884674,437,537.18913419793762
2015-10-27 17:26:24.884821,437,536.91803125434967
2015-10-27 17:26:24.884893,437,536.64692831076172
2015-10-27 17:26:24.900852,438,536.37582536717355
2015-10-27 17:26:24.900962,440,536.1047224235856
2015-10-27 17:26:24.901177,444,535.83361947999765
2015-10-27 17:26:24.901307,445,535.56251653640948
2015-10-27 17:26:24.916846,447,535.29141359282153
2015-10-27 17:26:24.916934,452,535.02031064923347
2015-10-27 17:26:24.916998,456,534.7492077056454
2015-10-27 17:26:24.932881,458,534.47810476205746
2015-10-27 17:26:24.932970,459,534.20700181846939
2015-10-27 17:26:24.933035,461,533.93589887488133
2015-10-27 17:26:24.948859,463,533.66479593129327
2015-10-27 17:26:24.948949,467,533.39369298770521
2015-10-27 17:26:24.949014,469,533.12259004411715
2015-10-27 17:26:24.964891,469,532.85148710052908
2015-10-27 17:26:24.964981,470,532.58038415694091
2015-10-27 17:26:24.965045,471,532.30928121335296
2015-10-27 17:26:24.980642,470,532.03817826976479
2015-10-27 17:26:24.980699,469,531.76707532617672
2015-10-27 17:26:24.980747,470,531.49597238258866
2015-10-27 17:26:24.996852,468,531.22486943900049
2015-10-27 17:26:24.996943,468,530.95376649541242
2015-10-27 17:26:24.997008,468,530.68266355182436
2015-10-27 17:26:25.012816,470,530.4115606082363
2015-10-27 17:26:25.012908,468,530.14045766464824
2015-10-27 17:26:25.012973,466,529.86935472106006
2015-10-27 17:26:25.028852,467,529.59825177747211
2015-10-27 17:26:25.028943,468,529.32714883388394
2015-10-27 17:26:25.029007,467,529.05604589029588
2015-10-27 17:26:25.044615,468,528.78494294670782
2015-10-27 17:26:25.044706,467,528.51384000311964
2015-10-27 17:26:25.044772,467,528.3578119519741
2015-10-27 17:26:25.060738,469,528.48779049978157
2015-10-27 17:26:25.060834,470,528.58282847650037
2015-10-27 17:26:25.060899,469,528.67786645321917
2015-10-27 17:26:25.076775,468,528.77290442993785
2015-10-27 17:26:25.076867,468,528.86794240665677
2015-10-27 17:26:25.076931,468,528.96298038337545
2015-10-27 17:26:25.092788,467,529.05801836009414
2015-10-27 17:26:25.092882,465,529.15305633681282
2015-10-27 17:26:25.092947,466,529.24809431353174
2015-10-27 17:26:25.108715,468,529.34313229025042
2015-10-27 17:26:25.108822,470,529.43817026696922
2015-10-27 17:26:25.108888,471,529.53320824368802
2015-10-27 17:26:25.124566,472,529.62824622040671
2015-10-27 17:26:25.124675,470,529.72328419712551
2015-10-27 17:26:25.124742,470,529.81832217384431
2015-10-27 17:26:25.140679,471,529.91336015056299
2015-10-27 17:26:25.140795,471,530.00839812728168
2015-10-27 17:26:25.140871,475,530.10343610400048
2015-10-27 17:26:25.140991,475,530.19847408071928
2015-10-27 17:26:25.156651,474,530.29351205743797
2015-10-27 17:26:25.156741,474,530.38855003415676
2015-10-27 17:26:25.156807,474,530.48358801087556
2015-10-27 17:26:25.172799,474,530.50361825582854
2015-10-27 17:26:25.172889,475,530.4932654940244
2015-10-27 17:26:25.172964,477,530.4932654940244
2015-10-27 17:26:25.188614,477,530.4932654940244
2015-10-27 17:26:25.188704,476,530.4932654940244
2015-10-27 17:26:25.188769,474,530.4932654940244
2015-10-27 17:26:25.204650,475,530.4932654940244
2015-10-27 17:26:25.204739,475,530.4932654940244
2015-10-27 17:26:25.204803,477,530.4932654940244
2015-10-27 17:26:25.220740,478,530.4932654940244
2015-10-27 17:26:25.220829,478,530.4932654940244
2015-10-27 17:26:25.220894,479,530.4932654940244
2015-10-27 17:26:25.236909,478,530.4932654940244
2015-10-27 17:26:25.237003,480,530.4932654940244
2015-10-27 17:26:25.237068,480,530.4932654940244
2015-10-27 17:26:25.252837,482,530.4932654940244
2015-10-27 17:26:25.253178,485,530.4932654940244
2015-10-27 17:26:25.253297,486,530.4932654940244
2015-10-27 17:26:25.268766,485,530.4932654940244
2015-10-27 17:26:25.268856,486,530.4932654940244
2015-10-27 17:26:25.268921,486,530.4932654940244
2015-10-27 17:26:25.284818,486,530.4932654940244
2015-10-27 17:26:25.284966,488,530.4932654940244
2015-10-27 17:26:25.285035,488,530.4932654940244
2015-10-27 17:26:25.300547,487,530.4932654940244
2015-10-27 17:26:25.300640,488,530.4932654940244
2015-10-27 17:26:25.300704,489,530.4932654940244
2015-10-27 17:26:25.316536,491,530.4932654940244
2015-10-27 17:26:25.316594,491,530.4932654940244
2015-10-27 17:26:25.316630,489,530.4932654940244
2015-10-27 17:26:25.332533,490,530.4932654940244
2015-10-27 17:26:25.332589,493,530.4932654940244
2015-10-27 17:26:25.332626,496,530.4932654940244
2015-10-27 17:26:25.348480,497,530.4932654940244
2015-10-27 17:26:25.348546,499,530.4932654940244
2015-10-27 17:26:25.348583,500,530.4932654940244
2015-10-27 17:26:25.364487,504,530.4932654940244
2015-10-27 17:26:25.364555,508,530.4932654940244
2015-10-27 17:26:25.364592,509,530.4932654940244
2015-10-27 17:26:25.380458,505,530.4932654940244
2015-10-27 17:26:25.380608,495,530.4932654940244
2015-10-27 17:26:25.380869,488,530.4932654940244
2015-10-27 17:26:25.381019,488,530.4932654940244
2015-10-27 17:26:25.396848,490,530.4932654940244
2015-10-27 17:26:25.397000,490,530.4932654940244
2015-10-27 17:26:25.397084,490,530.4932654940244
2015-10-27 17:26:25.412676,489,530.4932654940244
2015-10-27 17:26:25.412767,487,530.4932654940244
2015-10-27 17:26:25.412833,487,530.4932654940244
2015-10-27 17:26:25.428686,487,530.4932654940244
2015-10-27 17:26:25.428775,488,530.4932654940244
2015-10-27 17:26:25.428839,487,530.4932654940244
2015-10-27 17:26:25.444530,488,530.4932654940244
2015-10-27 17:26:25.444618,488,530.4932654940244
2015-10-27 17:26:25.444683,490,530.4932654940244
2015-10-27 17:26:25.460823,492,530.4932654940244
2015-10-27 17:26:25.460972,492,530.4932654940244
2015-10-27 17:26:25.461074,493,530.4932654940244
2015-10-27 17:26:25.476696,503,530.4932654940244
2015-10-27 17:26:25.476785,544,530.4932654940244
2015-10-27 17:26:25.476850,637,530.4932654940244
2015-10-27 17:26:25.492635,718,530.4932654940244
2015-10-27 17:26:25.492727,716,530.4932654940244
2015-10-27 17:26:25.492791,626,530.4932654940244
2015-10-27 17:26:25.508623,472,530.4932654940244
2015-10-27 17:26:25.508714,351,530.55408796962342
2015-10-27 17:26:25.508779,231,530.12416473583903
2015-10-27 17:26:25.524629,255,529.65521459668958
2015-10-27 17:26:25.524719,369,529.18626445754012
2015-10-27 17:26:25.524785,444,528.71731431839066
2015-10-27 17:26:25.540486,477,528.24836417924121
2015-10-27 17:26:25.540552,496,527.77941404009175
2015-10-27 17:26:25.540597,505,527.3104639009423
2015-10-27 17:26:25.556464,511,526.84151376179284
2015-10-27 17:26:25.556561,514,526.37256362264338
2015-10-27 17:26:25.556628,516,525.90361348349393
2015-10-27 17:26:25.572418,520,525.43466334434447
2015-10-27 17:26:25.572473,522,524.96571320519502
2015-10-27 17:26:25.572510,526,524.69962571445205
2015-10-27 17:26:25.588641,529,524.55145514651645
2015-10-27 17:26:25.588789,532,524.40328457858072
2015-10-27 17:26:25.588904,536,524.255114010645
2015-10-27 17:26:25.604536,539,524.10694344270939
2015-10-27 17:26:25.604644,541,523.95877287477379
2015-10-27 17:26:25.604711,541,523.81060230683806
2015-10-27 17:26:25.620679,543,523.66243173890234
2015-10-27 17:26:25.620788,545,523.51426117096673
2015-10-27 17:26:25.620854,548,523.36609060303113
2015-10-27 17:26:25.636459,551,523.2179200350954
2015-10-27 17:26:25.636616,554,523.0697494671598
2015-10-27 17:26:25.636773,556,522.92157889922419
2015-10-27 17:26:25.636993,560,522.77340833128846
2015-10-27 17:26:25.652759,565,522.62523776335297
2015-10-27 17:26:25.652849,570,522.47706719541725
2015-10-27 17:26:25.653047,575,522.32889662748175
2015-10-27 17:26:25.668787,580,522.18072605954603
2015-10-27 17:26:25.668963,586,522.03255549161042
2015-10-27 17:26:25.669089,593,521.88438492367482
2015-10-27 17:26:25.684513,601,521.73621435573909
2015-10-27 17:26:25.684603,612,521.58804378780349
2015-10-27 17:26:25.684669,620,521.43987321986788
2015-10-27 17:26:25.700738,631,521.29170265193216
2015-10-27 17:26:25.700837,644,521.14353208399666
2015-10-27 17:26:25.701017,653,520.99536151606094
2015-10-27 17:26:25.716641,659,520.84719094812544
2015-10-27 17:26:25.716731,663,520.69902038018972
2015-10-27 17:26:25.716802,667,520.55084981225411
2015-10-27 17:26:25.732447,670,520.40267924431851
2015-10-27 17:26:25.732556,669,520.25450867638278
2015-10-27 17:26:25.732798,666,520.10633810844718
2015-10-27 17:26:25.748430,660,519.95816754051157
2015-10-27 17:26:25.748617,652,519.80999697257585
2015-10-27 17:26:25.748756,641,519.66182640464035
2015-10-27 17:26:25.764520,629,519.51365583670474
2015-10-27 17:26:25.764678,611,519.36548526876913
2015-10-27 17:26:25.764831,591,519.21731470083341
2015-10-27 17:26:25.780473,570,519.0691441328978
2015-10-27 17:26:25.780538,550,518.9209735649622
2015-10-27 17:26:25.780583,533,518.77280299702647
2015-10-27 17:26:25.796556,517,518.62463242909098
2015-10-27 17:26:25.796649,500,518.47646186115537
2015-10-27 17:26:25.796715,485,518.32829129321976
2015-10-27 17:26:25.812570,473,518.18012072528404
2015-10-27 17:26:25.812662,465,518.03195015734843
2015-10-27 17:26:25.812727,456,517.88377958941282
2015-10-27 17:26:25.828513,450,517.7356090214771
2015-10-27 17:26:25.828607,448,517.58743845354161
2015-10-27 17:26:25.828672,447,517.43926788560589
2015-10-27 17:26:25.844670,444,517.29109731767039
2015-10-27 17:26:25.844832,443,517.14292674973467
2015-10-27 17:26:25.844899,442,516.99475618179906
2015-10-27 17:26:25.860583,441,516.84658561386345
2015-10-27 17:26:25.860693,441,516.69841504592773
2015-10-27 17:26:25.860759,443,516.55024447799224
2015-10-27 17:26:25.876611,444,516.40207391005652
2015-10-27 17:26:25.876721,445,516.25390334212091
2015-10-27 17:26:25.876786,444,516.1057327741853
2015-10-27 17:26:25.876848,446,515.95756220624969
2015-10-27 17:26:25.892494,449,515.80939163831408
2015-10-27 17:26:25.892582,454,515.66122107037836
2015-10-27 17:26:25.892646,457,515.51305050244275
2015-10-27 17:26:25.908892,460,515.36487993450714
2015-10-27 17:26:25.909063,461,515.21670936657142
2015-10-27 17:26:25.909139,463,515.06853879863593
2015-10-27 17:26:25.924387,464,514.92036823070021
2015-10-27 17:26:25.924441,466,514.7721976627646
2015-10-27 17:26:25.924478,468,514.62402709482899
2015-10-27 17:26:25.940397,471,514.47585652689327
2015-10-27 17:26:25.940452,473,514.32768595895777
2015-10-27 17:26:25.940490,474,514.17951539102205
2015-10-27 17:26:25.956435,475,514.03134482308633
2015-10-27 17:26:25.956491,475,513.88317425515083
2015-10-27 17:26:25.956527,476,513.73500368721511
2015-10-27 17:26:25.972476,476,513.5868331192795
2015-10-27 17:26:25.972592,475,513.4386625513439
2015-10-27 17:26:25.972693,474,513.29049198340817
2015-10-27 17:26:25.988463,474,513.14232141547257
2015-10-27 17:26:25.988625,473,512.99415084753696
2015-10-27 17:26:25.988745,470,512.84598027960124
2015-10-27 17:26:26.004419,470,512.69780971166563
2015-10-27 17:26:26.004484,471,512.54963914373002
2015-10-27 17:26:26.004528,472,512.40146857579452
2015-10-27 17:26:26.020549,471,512.2532980078588
2015-10-27 17:26:26.020640,471,512.10512743992319
2015-10-27 17:26:26.020706,469,511.95695687198753
2015-10-27 17:26:26.036668,466,511.74796382845295
2015-10-27 17:26:26.036799,467,512.02971649430174
2015-10-27 17:26:26.036864,470,512.35049606551559
2015-10-27 17:26:26.052617,472,512.67127563672943
2015-10-27 17:26:26.052710,471,512.99205520794317
2015-10-27 17:26:26.052777,471,513.31283477915701
2015-10-27 17:26:26.068516,471,513.63361435037086
2015-10-27 17:26:26.068610,472,513.9543939215846
2015-10-27 17:26:26.068676,474,514.27517349279844
2015-10-27 17:26:26.084566,475,514.59595306401229
2015-10-27 17:26:26.084730,476,514.91673263522603
2015-10-27 17:26:26.084797,478,515.23751220643987
2015-10-27 17:26:26.100509,479,515.55829177765372
2015-10-27 17:26:26.100653,479,515.67620870046096
2015-10-27 17:26:26.100721,478,515.67620870046096
2015-10-27 17:26:26.116602,478,515.67620870046096
2015-10-27 17:26:26.116763,480,515.67620870046096
2015-10-27 17:26:26.116830,478,515.67620870046096
2015-10-27 17:26:26.116892,479,515.67620870046096
2015-10-27 17:26:26.132569,478,515.67620870046096
2015-10-27 17:26:26.132659,476,515.67620870046096
2015-10-27 17:26:26.132723,476,515.67620870046096
2015-10-27 17:26:26.148577,477,515.67620870046096
2015-10-27 17:26:26.148667,479,515.67620870046096
2015-10-27 17:26:26.148733,477,515.67620870046096
2015-10-27 17:26:26.164564,476,515.67620870046096
2015-10-27 17:26:26.164697,477,515.67620870046096
2015-10-27 17:26:26.164764,478,515.67620870046096
2015-10-27 17:26:26.180585,478,515.67620870046096
2015-10-27 17:26:26.180674,479,515.67620870046096
2015-10-27 17:26:26.180739,481,515.67620870046096
2015-10-27 17:26:26.196554,482,515.67620870046096
2015-10-27 17:26:26.196857,483,515.67620870046096
2015-10-27 17:26:26.196939,483,515.67620870046096
2015-10-27 17:26:26.212767,482,515.67620870046096
2015-10-27 17:26:26.212858,483,515.67620870046096
2015-10-27 17:26:26.212938,486,515.67620870046096
2015-10-27 17:26:26.228684,487,515.67620870046096
2015-10-27 17:26:26.228826,487,515.67620870046096
2015-10-27 17:26:26.228910,487,515.67620870046096
2015-10-27 17:26:26.244619,487,515.67620870046096
2015-10-27 17:26:26.244709,488,515.67620870046096
2015-10-27 17:26:26.244773,489,515.67620870046096
2015-10-27 17:26:26.260717,489,515.67620870046096
2015-10-27 17:26:26.260810,490,515.67620870046096
2015-10-27 17:26:26.260895,492,515.67620870046096
2015-10-27 17:26:26.276363,493,515.67620870046096
2015-10-27 17:26:26.276432,494,515.67620870046096
2015-10-27 17:26:26.276480,496,515.67620870046096
2015-10-27 17:26:26.292630,496,515.67620870046096
2015-10-27 17:26:26.292751,496,515.67620870046096
2015-10-27 17:26:26.292817,497,515.67620870046096
2015-10-27 17:26:26.308666,494,515.67620870046096
2015-10-27 17:26:26.308791,495,515.67620870046096
2015-10-27 17:26:26.308858,498,515.67620870046096
2015-10-27 17:26:26.324521,501,515.67620870046096
2015-10-27 17:26:26.324631,503,515.67620870046096
2015-10-27 17:26:26.324697,504,515.67620870046096
2015-10-27 17:26:26.340352,505,515.67620870046096
2015-10-27 17:26:26.340505,509,515.67620870046096
2015-10-27 17:26:26.340723,511,515.67620870046096
2015-10-27 17:26:26.356619,511,515.67620870046096
2015-10-27 17:26:26.356795,508,515.67620870046096
2015-10-27 17:26:26.356933,499,515.67620870046096
2015-10-27 17:26:26.357066,495,515.67620870046096
2015-10-27 17:26:26.372447,493,515.67620870046096
2015-10-27 17:26:26.372542,494,515.67620870046096
2015-10-27 17:26:26.372700,493,515.67620870046096
2015-10-27 17:26:26.388734,494,515.67620870046096
2015-10-27 17:26:26.388894,496,515.67620870046096
2015-10-27 17:26:26.389041,498,515.67620870046096
2015-10-27 17:26:26.404535,495,515.67620870046096
2015-10-27 17:26:26.404707,494,515.67620870046096
2015-10-27 17:26:26.404776,494,515.67620870046096
2015-10-27 17:26:26.420653,495,515.67620870046096
2015-10-27 17:26:26.420897,495,515.67620870046096
2015-10-27 17:26:26.421129,495,515.67620870046096
2015-10-27 17:26:26.436640,497,515.67620870046096
2015-10-27 17:26:26.436738,499,515.67620870046096
2015-10-27 17:26:26.436925,501,515.67620870046096
2015-10-27 17:26:26.452485,505,515.67620870046096
2015-10-27 17:26:26.452576,515,515.67620870046096
2015-10-27 17:26:26.452640,543,515.67620870046096
2015-10-27 17:26:26.468409,618,515.67620870046096
2015-10-27 17:26:26.468500,719,515.67620870046096
2015-10-27 17:26:26.468565,758,515.67620870046096
2015-10-27 17:26:26.484364,705,515.67620870046096
2015-10-27 17:26:26.484456,548,515.67620870046096
2015-10-27 17:26:26.484521,405,515.67620870046096
2015-10-27 17:26:26.500440,270,515.51794588140615
2015-10-27 17:26:26.500532,230,515.22528965338302
2015-10-27 17:26:26.500598,334,514.93263342535988
2015-10-27 17:26:26.516410,434,514.63997719733663
2015-10-27 17:26:26.516504,484,514.34732096931339
2015-10-27 17:26:26.516569,508,514.05466474129025
2015-10-27 17:26:26.532388,521,513.76200851326712
2015-10-27 17:26:26.532568,525,513.46935228524399
2015-10-27 17:26:26.532662,528,513.17669605722062
2015-10-27 17:26:26.548386,533,512.88403982919738
2015-10-27 17:26:26.548479,536,512.59138360117413
2015-10-27 17:26:26.548544,539,512.298727373151
2015-10-27 17:26:26.564406,541,512.15763454379839
2015-10-27 17:26:26.564515,544,512.24017790266043
2015-10-27 17:26:26.564581,546,512.27613383340417
2015-10-27 17:26:26.580377,548,512.31208976414791
2015-10-27 17:26:26.580485,552,512.34804569489165
2015-10-27 17:26:26.580551,553,512.38400162563516
2015-10-27 17:26:26.596312,553,512.4199575563789
2015-10-27 17:26:26.596421,555,512.45591348712264
2015-10-27 17:26:26.596487,556,512.49186941786638
2015-10-27 17:26:26.596549,559,512.52782534861012
2015-10-27 17:26:26.612337,562,512.56378127935375
2015-10-27 17:26:26.612427,564,512.59973721009749
2015-10-27 17:26:26.612492,567,512.63569314084111
2015-10-27 17:26:26.628575,571,512.67164907158485
2015-10-27 17:26:26.628739,577,512.70760500232859
2015-10-27 17:26:26.628827,581,512.74356093307233
2015-10-27 17:26:26.644350,585,512.77951686381584
2015-10-27 17:26:26.644524,591,512.81547279455958
2015-10-27 17:26:26.644714,597,512.85142872530332
2015-10-27 17:26:26.660456,605,512.88738465604706
2015-10-27 17:26:26.660669,612,512.92334058679069
2015-10-27 17:26:26.660820,622,512.95929651753443
2015-10-27 17:26:26.676504,634,512.99525244827805
2015-10-27 17:26:26.676594,646,513.03120837902179
2015-10-27 17:26:26.676660,655,513.06716430976553
2015-10-27 17:26:26.692446,663,513.10312024050927
2015-10-27 17:26:26.692536,669,513.13907617125278
2015-10-27 17:26:26.692742,675,513.17503210199652
2015-10-27 17:26:26.708275,681,513.21098803274026
2015-10-27 17:26:26.708366,684,513.246943963484
2015-10-27 17:26:26.708445,685,513.28289989422763
2015-10-27 17:26:26.724377,682,513.31885582497137
2015-10-27 17:26:26.724467,678,513.35481175571499
2015-10-27 17:26:26.724533,671,513.39076768645873
2015-10-27 17:26:26.740410,661,513.42672361720247
2015-10-27 17:26:26.740501,648,513.46267954794621
2015-10-27 17:26:26.740566,633,513.49863547868972
2015-10-27 17:26:26.756242,614,513.53459140943346
2015-10-27 17:26:26.756404,592,513.5705473401772
2015-10-27 17:26:26.756517,571,513.60650327092094
2015-10-27 17:26:26.772339,551,513.64245920166456
2015-10-27 17:26:26.772450,532,513.6784151324083
2015-10-27 17:26:26.772517,515,513.71437106315204
2015-10-27 17:26:26.788228,498,513.75032699389567
2015-10-27 17:26:26.788439,487,513.78628292463941
2015-10-27 17:26:26.788518,476,513.82223885538315
2015-10-27 17:26:26.804406,466,513.85819478612689
2015-10-27 17:26:26.804568,461,513.89415071687051
2015-10-27 17:26:26.804635,456,513.93010664761425
2015-10-27 17:26:26.820328,451,513.96606257835799
2015-10-27 17:26:26.820492,447,514.00201850910173
2015-10-27 17:26:26.820559,446,514.03797443984536
2015-10-27 17:26:26.836315,447,514.0739303705891
2015-10-27 17:26:26.836424,445,514.10988630133284
2015-10-27 17:26:26.836489,442,514.14584223207657
2015-10-27 17:26:26.852380,442,514.1817981628202
2015-10-27 17:26:26.852543,444,514.21775409356394
2015-10-27 17:26:26.852610,447,514.25371002430768
2015-10-27 17:26:26.852672,449,514.28966595505142
2015-10-27 17:26:26.868217,452,514.32562188579516
2015-10-27 17:26:26.868307,457,514.3615778165389
2015-10-27 17:26:26.868371,461,514.39753374728252
2015-10-27 17:26:26.884263,463,514.43348967802626
2015-10-27 17:26:26.884508,464,514.46944560877
2015-10-27 17:26:26.884739,466,514.50540153951374
2015-10-27 17:26:26.900259,469,514.54135747025748
2015-10-27 17:26:26.900348,470,514.57731340100122
2015-10-27 17:26:26.900413,471,514.61326933174496
2015-10-27 17:26:26.916327,474,514.6492252624887
2015-10-27 17:26:26.916416,476,514.68518119323244
2015-10-27 17:26:26.916481,478,514.72113712397618
2015-10-27 17:26:26.932442,478,514.75709305471992
2015-10-27 17:26:26.932532,476,514.79304898546366
2015-10-27 17:26:26.932597,477,514.8290049162074
2015-10-27 17:26:26.948508,478,514.86496084695113
2015-10-27 17:26:26.948613,478,514.90091677769487
2015-10-27 17:26:26.948686,478,514.93687270843861
2015-10-27 17:26:26.964195,478,514.97282863918235
2015-10-27 17:26:26.964348,478,515.00878456992609
2015-10-27 17:26:26.964483,477,515.04474050066983
2015-10-27 17:26:26.980434,476,515.08069643141346
2015-10-27 17:26:26.980523,474,515.1166523621572
2015-10-27 17:26:26.980587,474,515.15260829290094
2015-10-27 17:26:26.996144,474,515.18856422364468
2015-10-27 17:26:26.996235,473,515.22452015438841
2015-10-27 17:26:26.996301,472,515.26047608513215
2015-10-27 17:26:27.012113,471,515.29643201587578
2015-10-27 17:26:27.012194,473,515.33238794661952
2015-10-27 17:26:27.012251,475,515.52660669641807
2015-10-27 17:26:27.028157,475,515.85521885518494
2015-10-27 17:26:27.028325,474,516.18383101395193
2015-10-27 17:26:27.028460,473,516.5124431727188
2015-10-27 17:26:27.044233,472,516.84105533148579
2015-10-27 17:26:27.044326,472,517.16966749025278
2015-10-27 17:26:27.044392,477,517.49827964901965
2015-10-27 17:26:27.060294,477,517.82689180778652
2015-10-27 17:26:27.060452,476,518.15550396655362
2015-10-27 17:26:27.060517,476,518.4841161253205
2015-10-27 17:26:27.076338,475,518.81272828408737
2015-10-27 17:26:27.076448,474,519.14134044285424
2015-10-27 17:26:27.076515,476,519.31838920295058
2015-10-27 17:26:27.092089,475,519.27180177483228
2015-10-27 17:26:27.092206,474,519.27180177483228
2015-10-27 17:26:27.092273,474,519.27180177483228
2015-10-27 17:26:27.092335,478,519.27180177483228
2015-10-27 17:26:27.108263,479,519.27180177483228
2015-10-27 17:26:27.108352,480,519.27180177483228
2015-10-27 17:26:27.108417,480,519.27180177483228
2015-10-27 17:26:27.124111,479,519.27180177483228
2015-10-27 17:26:27.124205,477,519.27180177483228
2015-10-27 17:26:27.124271,478,519.27180177483228
2015-10-27 17:26:27.140427,479,519.27180177483228
2015-10-27 17:26:27.140578,480,519.27180177483228
2015-10-27 17:26:27.140707,481,519.27180177483228
2015-10-27 17:26:27.156309,481,519.27180177483228
2015-10-27 17:26:27.156425,480,519.27180177483228
2015-10-27 17:26:27.156490,481,519.27180177483228
2015-10-27 17:26:27.172096,483,519.27180177483228
2015-10-27 17:26:27.172188,484,519.27180177483228
2015-10-27 17:26:27.172253,484,519.27180177483228
2015-10-27 17:26:27.188475,482,519.27180177483228
2015-10-27 17:26:27.188577,481,519.27180177483228
2015-10-27 17:26:27.188643,485,519.27180177483228
2015-10-27 17:26:27.204100,487,519.27180177483228
2015-10-27 17:26:27.204195,488,519.27180177483228
2015-10-27 17:26:27.204261,488,519.27180177483228
2015-10-27 17:26:27.220361,487,519.27180177483228
2015-10-27 17:26:27.220451,488,519.27180177483228
2015-10-27 17:26:27.220515,488,519.27180177483228
2015-10-27 17:26:27.236065,486,519.27180177483228
2015-10-27 17:26:27.236156,487,519.27180177483228
2015-10-27 17:26:27.236221,489,519.27180177483228
2015-10-27 17:26:27.252178,490,519.27180177483228
2015-10-27 17:26:27.252269,491,519.27180177483228
2015-10-27 17:26:27.252333,492,519.27180177483228
2015-10-27 17:26:27.268183,491,519.27180177483228
2015-10-27 17:26:27.268276,491,519.27180177483228
2015-10-27 17:26:27.268341,489,519.27180177483228
2015-10-27 17:26:27.284197,491,519.27180177483228
2015-10-27 17:26:27.284324,496,519.27180177483228
2015-10-27 17:26:27.284390,496,519.27180177483228
2015-10-27 17:26:27.300206,493,519.27180177483228
2015-10-27 17:26:27.300317,494,519.27180177483228
2015-10-27 17:26:27.300383,497,519.27180177483228
2015-10-27 17:26:27.316198,499,519.27180177483228
2015-10-27 17:26:27.316307,504,519.27180177483228
2015-10-27 17:26:27.316373,508,519.27180177483228
2015-10-27 17:26:27.332007,511,519.27180177483228
2015-10-27 17:26:27.332117,515,519.27180177483228
2015-10-27 17:26:27.332183,514,519.27180177483228
2015-10-27 17:26:27.332246,511,519.27180177483228
2015-10-27 17:26:27.348172,504,519.27180177483228
2015-10-27 17:26:27.348261,496,519.27180177483228
2015-10-27 17:26:27.348325,493,519.27180177483228
2015-10-27 17:26:27.364204,493,519.27180177483228
2015-10-27 17:26:27.364293,495,519.27180177483228
2015-10-27 17:26:27.364358,493,519.27180177483228
2015-10-27 17:26:27.380177,493,519.27180177483228
2015-10-27 17:26:27.380266,496,519.27180177483228
2015-10-27 17:26:27.380331,497,519.27180177483228
2015-10-27 17:26:27.396391,497,519.27180177483228
2015-10-27 17:26:27.396533,498,519.27180177483228
2015-10-27 17:26:27.396633,500,519.27180177483228
2015-10-27 17:26:27.412207,503,519.27180177483228
2015-10-27 17:26:27.412324,502,519.27180177483228
2015-10-27 17:26:27.412390,504,519.27180177483228
2015-10-27 17:26:27.428255,506,519.27180177483228
2015-10-27 17:26:27.428344,508,519.27180177483228
2015-10-27 17:26:27.428409,508,519.27180177483228
2015-10-27 17:26:27.444142,509,519.27180177483228
2015-10-27 17:26:27.444233,520,519.27180177483228
2015-10-27 17:26:27.444298,555,519.27180177483228
2015-10-27 17:26:27.460113,644,519.27180177483228
2015-10-27 17:26:27.460205,744,519.27180177483228
2015-10-27 17:26:27.460282,766,519.27180177483228
2015-10-27 17:26:27.476137,688,519.27180177483228
2015-10-27 17:26:27.476227,516,519.27180177483228
2015-10-27 17:26:27.476292,374,519.31191872682302
2015-10-27 17:26:27.492220,235,518.96756670597927
2015-10-27 17:26:27.492350,235,518.62758642575352
2015-10-27 17:26:27.492416,356,518.28760614552766
2015-10-27 17:26:27.507946,448,517.94762586530192
2015-10-27 17:26:27.508042,490,517.60764558507617
2015-10-27 17:26:27.508110,512,517.26766530485031
2015-10-27 17:26:27.524094,524,516.92768502462457
2015-10-27 17:26:27.524188,528,516.58770474439871
2015-10-27 17:26:27.524253,531,516.24772446417296
2015-10-27 17:26:27.539939,534,515.90774418394722
2015-10-27 17:26:27.540058,538,515.48494180928878
2015-10-27 17:26:27.540215,541,515.27971991468792
2015-10-27 17:26:27.556051,545,515.10051595699701
2015-10-27 17:26:27.556160,549,514.92131199930623
2015-10-27 17:26:27.556228,550,514.74210804161544
2015-10-27 17:26:27.572106,550,514.56290408392454
2015-10-27 17:26:27.572217,551,514.38370012623363
2015-10-27 17:26:27.572283,551,514.20449616854285
2015-10-27 17:26:27.572345,552,514.02529221085194
2015-10-27 17:26:27.588116,554,513.84608825316104
2015-10-27 17:26:27.588397,560,513.66688429547025
2015-10-27 17:26:27.588479,563,513.48768033777935
2015-10-27 17:26:27.604139,565,513.30847638008845
2015-10-27 17:26:27.604228,567,513.12927242239766
2015-10-27 17:26:27.604293,572,512.95006846470676
2015-10-27 17:26:27.620112,577,512.77086450701586
2015-10-27 17:26:27.620201,582,512.59166054932496
2015-10-27 17:26:27.620266,586,512.41245659163405
2015-10-27 17:26:27.636111,589,512.23325263394327
2015-10-27 17:26:27.636201,596,512.05404867625225
2015-10-27 17:26:27.636265,604,511.87484471856146
2015-10-27 17:26:27.651907,613,511.69564076087056
2015-10-27 17:26:27.651996,621,511.51643680317972
2015-10-27 17:26:27.652062,629,511.33723284548881
2015-10-27 17:26:27.668060,639,511.15802888779785
2015-10-27 17:26:27.668253,650,510.97882493010701
2015-10-27 17:26:27.668335,661,510.79962097241611
2015-10-27 17:26:27.684118,670,510.62041701472526
2015-10-27 17:26:27.684241,678,510.44121305703436
2015-10-27 17:26:27.684307,685,510.26200909934352
2015-10-27 17:26:27.700179,691,510.08280514165261
2015-10-27 17:26:27.700300,694,509.90360118396177
2015-10-27 17:26:27.700366,692,509.72439722627087
2015-10-27 17:26:27.716062,688,509.54519326858002
2015-10-27 17:26:27.716154,683,509.36598931088906
2015-10-27 17:26:27.716220,675,509.18678535319822
2015-10-27 17:26:27.732079,666,509.00758139550732
2015-10-27 17:26:27.732177,654,508.82837743781647
2015-10-27 17:26:27.732243,638,508.64917348012557
2015-10-27 17:26:27.748188,618,508.46996952243472
2015-10-27 17:26:27.748281,596,508.29076556474382
2015-10-27 17:26:27.748345,573,508.11156160705298
2015-10-27 17:26:27.764126,553,507.93235764936207
2015-10-27 17:26:27.764217,533,507.75315369167112
2015-10-27 17:26:27.764281,515,507.57394973398027
2015-10-27 17:26:27.780187,499,507.39474577628937
2015-10-27 17:26:27.780300,484,507.21554181859847
2015-10-27 17:26:27.780386,473,507.03633786090757
2015-10-27 17:26:27.796025,466,506.85713390321672
2015-10-27 17:26:27.796206,460,506.67792994552576
2015-10-27 17:26:27.796428,454,506.49872598783486
2015-10-27 17:26:27.811942,449,506.31952203014396
2015-10-27 17:26:27.812051,449,506.14031807245311
2015-10-27 17:26:27.812117,448,505.96111411476221
2015-10-27 17:26:27.828045,443,505.78191015707131
2015-10-27 17:26:27.828200,443,505.60270619938046
2015-10-27 17:26:27.828267,445,505.4235022416895
2015-10-27 17:26:27.828331,448,505.24429828399866
2015-10-27 17:26:27.843892,449,505.06509432630776
2015-10-27 17:26:27.843981,450,504.88589036861691
2015-10-27 17:26:27.844046,450,504.70668641092601
2015-10-27 17:26:27.859876,450,504.52748245323511
2015-10-27 17:26:27.859987,451,504.34827849554426
2015-10-27 17:26:27.860109,455,504.16907453785331
2015-10-27 17:26:27.876108,459,503.98987058016252
2015-10-27 17:26:27.876197,462,503.81066662247156
2015-10-27 17:26:27.876262,465,503.63146266478071
2015-10-27 17:26:27.892192,467,503.45225870708981
2015-10-27 17:26:27.892281,468,503.27305474939897
2015-10-27 17:26:27.892347,469,503.09385079170806
2015-10-27 17:26:27.908087,475,502.91464683401722
2015-10-27 17:26:27.908206,476,502.73544287632632
2015-10-27 17:26:27.908271,476,502.55623891863547
2015-10-27 17:26:27.923940,475,502.37703496094451
2015-10-27 17:26:27.924037,476,502.19783100325373
2015-10-27 17:26:27.924084,478,502.01862704556277
2015-10-27 17:26:27.939937,477,501.83942308787192
2015-10-27 17:26:27.940029,477,501.66021913018102
2015-10-27 17:26:27.940094,477,501.48101517249017
2015-10-27 17:26:27.956109,476,501.30181121479927
2015-10-27 17:26:27.956199,474,501.12260725710837
2015-10-27 17:26:27.956264,472,500.94340329941741
2015-10-27 17:26:27.971898,472,500.76419934172657
2015-10-27 17:26:27.971988,472,500.58499538403566
2015-10-27 17:26:27.972053,473,500.40579142634482
2015-10-27 17:26:27.987939,472,500.22658746865392
2015-10-27 17:26:27.988058,471,500.04738351096302
2015-10-27 17:26:27.988147,471,499.86817955327217
2015-10-27 17:26:28.003852,475,499.68897559558127
2015-10-27 17:26:28.003932,476,499.46965468589963
2015-10-27 17:26:28.004064,478,499.63480274905243
2015-10-27 17:26:28.019839,478,499.79557907158738
2015-10-27 17:26:28.019908,475,499.95635539412223
2015-10-27 17:26:28.019954,474,500.11713171665718
2015-10-27 17:26:28.035862,474,500.27790803919214
2015-10-27 17:26:28.036272,473,500.43868436172704
2015-10-27 17:26:28.036325,473,500.59946068426194
2015-10-27 17:26:28.051845,474,500.7602370067969
2015-10-27 17:26:28.051952,476,500.9210133293318
2015-10-27 17:26:28.052019,477,501.08178965186676
2015-10-27 17:26:28.068037,477,501.32538806883434
2015-10-27 17:26:28.068169,477,501.35140600574431
2015-10-27 17:26:28.068257,476,501.35140600574431
2015-10-27 17:26:28.068322,476,501.35140600574431
2015-10-27 17:26:28.084143,477,501.35140600574431
2015-10-27 17:26:28.084233,478,501.35140600574431
2015-10-27 17:26:28.084298,479,501.35140600574431
2015-10-27 17:26:28.100027,477,501.35140600574431
2015-10-27 17:26:28.100118,478,501.35140600574431
2015-10-27 17:26:28.100182,481,501.35140600574431
2015-10-27 17:26:28.115890,482,501.35140600574431
2015-10-27 17:26:28.115979,480,501.35140600574431
2015-10-27 17:26:28.116140,481,501.35140600574431
2015-10-27 17:26:28.132528,483,501.35140600574431
2015-10-27 17:26:28.132687,483,501.35140600574431
2015-10-27 17:26:28.132815,482,501.35140600574431
2015-10-27 17:26:28.147968,482,501.35140600574431
2015-10-27 17:26:28.148057,482,501.35140600574431
2015-10-27 17:26:28.148121,484,501.35140600574431
2015-10-27 17:26:28.164106,485,501.35140600574431
2015-10-27 17:26:28.164196,487,501.35140600574431
2015-10-27 17:26:28.164261,487,501.35140600574431
2015-10-27 17:26:28.179972,487,501.35140600574431
2015-10-27 17:26:28.180064,488,501.35140600574431
2015-10-27 17:26:28.180129,489,501.35140600574431
2015-10-27 17:26:28.196125,491,501.35140600574431
2015-10-27 17:26:28.196216,493,501.35140600574431
2015-10-27 17:26:28.196281,490,501.35140600574431
2015-10-27 17:26:28.211878,487,501.35140600574431
2015-10-27 17:26:28.211971,487,501.35140600574431
2015-10-27 17:26:28.212036,490,501.35140600574431
2015-10-27 17:26:28.228100,492,501.35140600574431
2015-10-27 17:26:28.228196,491,501.35140600574431
2015-10-27 17:26:28.228263,493,501.35140600574431
2015-10-27 17:26:28.243975,494,501.35140600574431
2015-10-27 17:26:28.244102,496,501.35140600574431
2015-10-27 17:26:28.244168,496,501.35140600574431
2015-10-27 17:26:28.260063,495,501.35140600574431
2015-10-27 17:26:28.260209,498,501.35140600574431
2015-10-27 17:26:28.260275,499,501.35140600574431
2015-10-27 17:26:28.275759,497,501.35140600574431
2015-10-27 17:26:28.275870,496,501.35140600574431
2015-10-27 17:26:28.275944,497,501.35140600574431
2015-10-27 17:26:28.291930,499,501.35140600574431
2015-10-27 17:26:28.292037,500,501.35140600574431
2015-10-27 17:26:28.292103,501,501.35140600574431
2015-10-27 17:26:28.307765,499,501.35140600574431
2015-10-27 17:26:28.307884,496,501.35140600574431
2015-10-27 17:26:28.307952,499,501.35140600574431
2015-10-27 17:26:28.308016,504,501.35140600574431
2015-10-27 17:26:28.323815,508,501.35140600574431
2015-10-27 17:26:28.323888,510,501.35140600574431
2015-10-27 17:26:28.323944,512,501.35140600574431
2015-10-27 17:26:28.339781,515,501.35140600574431
2015-10-27 17:26:28.339835,521,501.35140600574431
2015-10-27 17:26:28.339873,521,501.35140600574431
2015-10-27 17:26:28.355760,514,501.35140600574431
2015-10-27 17:26:28.355846,503,501.35140600574431
2015-10-27 17:26:28.355911,497,501.35140600574431
2015-10-27 17:26:28.371699,494,501.35140600574431
2015-10-27 17:26:28.371751,496,501.35140600574431
2015-10-27 17:26:28.371789,496,501.35140600574431
2015-10-27 17:26:28.387923,497,501.35140600574431
2015-10-27 17:26:28.388016,499,501.35140600574431
2015-10-27 17:26:28.388090,498,501.35140600574431
2015-10-27 17:26:28.403750,496,501.35140600574431
2015-10-27 17:26:28.403843,496,501.35140600574431
2015-10-27 17:26:28.403914,498,501.35140600574431
2015-10-27 17:26:28.419739,500,501.35140600574431
2015-10-27 17:26:28.419834,500,501.35140600574431
2015-10-27 17:26:28.419958,502,501.35140600574431
2015-10-27 17:26:28.436398,505,501.35140600574431
2015-10-27 17:26:28.436507,506,501.35140600574431
2015-10-27 17:26:28.436576,506,501.35140600574431
2015-10-27 17:26:28.451760,508,501.35140600574431
2015-10-27 17:26:28.451876,517,501.35140600574431
2015-10-27 17:26:28.452258,543,501.35140600574431
2015-10-27 17:26:28.467903,620,501.35140600574431
2015-10-27 17:26:28.467980,728,501.35140600574431
2015-10-27 17:26:28.468034,767,501.35140600574431
2015-10-27 17:26:28.483695,714,501.35140600574431
2015-10-27 17:26:28.483759,550,501.35140600574431
2015-10-27 17:26:28.483798,396,501.35140600574431
2015-10-27 17:26:28.499904,253,501.14383153572032
2015-10-27 17:26:28.499997,201,500.86499558720709
2015-10-27 17:26:28.500063,310,500.58615963869391
2015-10-27 17:26:28.515721,423,500.30732369018068
2015-10-27 17:26:28.515830,475,500.02848774166745
2015-10-27 17:26:28.515896,499,499.74965179315421
2015-10-27 17:26:28.531850,514,499.47081584464098
2015-10-27 17:26:28.531958,524,499.15856236452123
2015-10-27 17:26:28.532024,529,499.06511544348461
2015-10-27 17:26:28.547752,533,498.91990471342768
2015-10-27 17:26:28.547861,538,498.77469398337087
2015-10-27 17:26:28.547954,541,498.62948325331394
2015-10-27 17:26:28.548090,544,498.48427252325706
2015-10-27 17:26:28.563748,546,498.33906179320013
2015-10-27 17:26:28.563821,547,498.19385106314326
2015-10-27 17:26:28.563874,548,498.04864033308633
2015-10-27 17:26:28.579745,550,497.90342960302945
2015-10-27 17:26:28.579838,554,497.75821887297252
2015-10-27 17:26:28.579902,557,497.61300814291565
2015-10-27 17:26:28.595793,559,497.46779741285872
2015-10-27 17:26:28.595916,562,497.3225866828019
2015-10-27 17:26:28.596019,563,497.17737595274497
2015-10-27 17:26:28.611787,565,497.03216522268809
2015-10-27 17:26:28.611929,567,496.88695449263116
2015-10-27 17:26:28.612059,569,496.74174376257429
2015-10-27 17:26:28.627742,577,496.59653303251736
2015-10-27 17:26:28.627832,583,496.45132230246048
2015-10-27 17:26:28.627907,588,496.30611157240355
2015-10-27 17:26:28.643715,591,496.16090084234668
2015-10-27 17:26:28.643806,596,496.01569011228975
2015-10-27 17:26:28.643872,601,495.87047938223293
2015-10-27 17:26:28.659830,611,495.725268652176
2015-10-27 17:26:28.659921,618,495.58005792211912
2015-10-27 17:26:28.659985,625,495.43484719206219
2015-10-27 17:26:28.675945,635,495.28963646200532
2015-10-27 17:26:28.676037,643,495.14442573194839
2015-10-27 17:26:28.676102,654,494.99921500189151
2015-10-27 17:26:28.691687,666,494.85400427183458
2015-10-27 17:26:28.691778,675,494.70879354177771
2015-10-27 17:26:28.691843,683,494.56358281172078
2015-10-27 17:26:28.707804,688,494.41837208166396
2015-10-27 17:26:28.707898,689,494.27316135160703
2015-10-27 17:26:28.707964,688,494.12795062155016
2015-10-27 17:26:28.723809,685,493.98273989149322
2015-10-27 17:26:28.723903,681,493.83752916143635
2015-10-27 17:26:28.723968,678,493.69231843137942
2015-10-27 17:26:28.739822,667,493.54710770132255
2015-10-27 17:26:28.739944,654,493.40189697126561
2015-10-27 17:26:28.740010,641,493.25668624120874
2015-10-27 17:26:28.755867,622,493.11147551115181
2015-10-27 17:26:28.756157,601,492.96626478109499
2015-10-27 17:26:28.756229,580,492.82105405103806
2015-10-27 17:26:28.771647,558,492.67584332098119
2015-10-27 17:26:28.771754,540,492.53063259092426
2015-10-27 17:26:28.771820,523,492.38542186086732
2015-10-27 17:26:28.787720,506,492.24021113081045
2015-10-27 17:26:28.787829,492,492.09500040075352
2015-10-27 17:26:28.787894,482,491.94978967069659
2015-10-27 17:26:28.787957,473,491.80457894063966
2015-10-27 17:26:28.803968,465,491.65936821058278
2015-10-27 17:26:28.804058,458,491.51415748052585
2015-10-27 17:26:28.804123,453,491.36894675046892
2015-10-27 17:26:28.819782,450,491.22373602041199
2015-10-27 17:26:28.819872,447,491.07852529035512
2015-10-27 17:26:28.819936,446,490.93331456029819
2015-10-27 17:26:28.835947,445,490.78810383024125
2015-10-27 17:26:28.836037,444,490.64289310018432
2015-10-27 17:26:28.836101,446,490.49768237012745
2015-10-27 17:26:28.851768,449,490.35247164007052
2015-10-27 17:26:28.851858,451,490.20726091001359
2015-10-27 17:26:28.851923,452,490.06205017995666
2015-10-27 17:26:28.868044,456,489.91683944989978
2015-10-27 17:26:28.868135,458,489.77162871984285
2015-10-27 17:26:28.868201,459,489.62641798978592
2015-10-27 17:26:28.883918,462,489.48120725972899
2015-10-27 17:26:28.884009,466,489.33599652967217
2015-10-27 17:26:28.884074,466,489.19078579961524
2015-10-27 17:26:28.899771,466,489.04557506955831
2015-10-27 17:26:28.899861,467,488.90036433950144
2015-10-27 17:26:28.899925,469,488.75515360944451
2015-10-27 17:26:28.915773,470,488.60994287938763
2015-10-27 17:26:28.915864,472,488.4647321493307
2015-10-27 17:26:28.915928,476,488.31952141927383
2015-10-27 17:26:28.931707,478,488.1743106892169
2015-10-27 17:26:28.931857,477,488.02909995915996
2015-10-27 17:26:28.931987,475,487.88388922910309
2015-10-27 17:26:28.947611,476,487.73867849904616
2015-10-27 17:26:28.947702,476,487.59346776898934
2015-10-27 17:26:28.947768,476,487.44825703893235
2015-10-27 17:26:28.963526,477,487.30304630887548
2015-10-27 17:26:28.963583,476,487.15783557881861
2015-10-27 17:26:28.963621,475,487.01262484876167
2015-10-27 17:26:28.979608,474,486.86741411870474
2015-10-27 17:26:28.979676,473,486.72220338864787
2015-10-27 17:26:28.979720,476,486.57699265859094
2015-10-27 17:26:28.995645,476,486.43178192853401
2015-10-27 17:26:28.995704,473,486.28657119847713
2015-10-27 17:26:28.995741,470,486.14136046842026
2015-10-27 17:26:29.011602,471,485.99614973836333
2015-10-27 17:26:29.011674,473,485.8509390083064
2015-10-27 17:26:29.011712,474,485.91330274827345
2015-10-27 17:26:29.027487,474,486.04692796672975
2015-10-27 17:26:29.027595,472,486.18055318518611
2015-10-27 17:26:29.027662,474,486.31417840364242
2015-10-27 17:26:29.043496,476,486.44780362209872
2015-10-27 17:26:29.043598,475,486.58142884055502
2015-10-27 17:26:29.043665,474,486.71505405901138
2015-10-27 17:26:29.043731,475,486.88209680907414
2015-10-27 17:26:29.059529,475,486.83033300005377
2015-10-27 17:26:29.059582,476,486.83033300005377
2015-10-27 17:26:29.059620,477,486.83033300005377
2015-10-27 17:26:29.075623,478,486.83033300005377
2015-10-27 17:26:29.075722,477,486.83033300005377
2015-10-27 17:26:29.075788,475,486.83033300005377
2015-10-27 17:26:29.091567,476,486.83033300005377
2015-10-27 17:26:29.091672,477,486.83033300005377
2015-10-27 17:26:29.091743,476,486.83033300005377
2015-10-27 17:26:29.107563,476,486.83033300005377
2015-10-27 17:26:29.107685,477,486.83033300005377
2015-10-27 17:26:29.107765,478,486.83033300005377
2015-10-27 17:26:29.123751,481,486.83033300005377
2015-10-27 17:26:29.123950,484,486.83033300005377
2015-10-27 17:26:29.124073,484,486.83033300005377
2015-10-27 17:26:29.139623,483,486.83033300005377
2015-10-27 17:26:29.139760,480,486.83033300005377
2015-10-27 17:26:29.139868,480,486.83033300005377
2015-10-27 17:26:29.155594,480,486.83033300005377
2015-10-27 17:26:29.155683,480,486.83033300005377
2015-10-27 17:26:29.155787,482,486.83033300005377
2015-10-27 17:26:29.171624,484,486.83033300005377
2015-10-27 17:26:29.171774,485,486.83033300005377
2015-10-27 17:26:29.171885,485,486.83033300005377
2015-10-27 17:26:29.187745,485,486.83033300005377
2015-10-27 17:26:29.187892,487,486.83033300005377
2015-10-27 17:26:29.188020,487,486.83033300005377
2015-10-27 17:26:29.203703,486,486.83033300005377
2015-10-27 17:26:29.203795,487,486.83033300005377
2015-10-27 17:26:29.203860,488,486.83033300005377
2015-10-27 17:26:29.219559,488,486.83033300005377
2015-10-27 17:26:29.219655,488,486.83033300005377
2015-10-27 17:26:29.219720,490,486.83033300005377
2015-10-27 17:26:29.235575,493,486.83033300005377
2015-10-27 17:26:29.235716,492,486.83033300005377
2015-10-27 17:26:29.235814,493,486.83033300005377
2015-10-27 17:26:29.251538,497,486.83033300005377
2015-10-27 17:26:29.251647,498,486.83033300005377
2015-10-27 17:26:29.251714,497,486.83033300005377
2015-10-27 17:26:29.267601,499,486.83033300005377
2015-10-27 17:26:29.267711,500,486.83033300005377
2015-10-27 17:26:29.267777,500,486.83033300005377
2015-10-27 17:26:29.283492,499,486.83033300005377
2015-10-27 17:26:29.283583,498,486.83033300005377
2015-10-27 17:26:29.283637,499,486.83033300005377
2015-10-27 17:26:29.283687,504,486.83033300005377
2015-10-27 17:26:29.299725,506,486.83033300005377
2015-10-27 17:26:29.299815,505,486.83033300005377
2015-10-27 17:26:29.299880,504,486.83033300005377
2015-10-27 17:26:29.315711,507,486.83033300005377
2015-10-27 17:26:29.315802,513,486.83033300005377
2015-10-27 17:26:29.315867,517,486.83033300005377
2015-10-27 17:26:29.331590,519,486.83033300005377
2015-10-27 17:26:29.331679,515,486.83033300005377
2015-10-27 17:26:29.331744,505,486.83033300005377
2015-10-27 17:26:29.347615,496,486.83033300005377
2015-10-27 17:26:29.347773,495,486.83033300005377
2015-10-27 17:26:29.348041,497,486.83033300005377
2015-10-27 17:26:29.363525,498,486.83033300005377
2015-10-27 17:26:29.363614,498,486.83033300005377
2015-10-27 17:26:29.363680,497,486.83033300005377
2015-10-27 17:26:29.379503,498,486.83033300005377
2015-10-27 17:26:29.379593,500,486.83033300005377
2015-10-27 17:26:29.379658,500,486.83033300005377
2015-10-27 17:26:29.395690,499,486.83033300005377
2015-10-27 17:26:29.395783,497,486.83033300005377
2015-10-27 17:26:29.395952,497,486.83033300005377
2015-10-27 17:26:29.411682,498,486.83033300005377
2015-10-27 17:26:29.411775,499,486.83033300005377
2015-10-27 17:26:29.411840,499,486.83033300005377
2015-10-27 17:26:29.427763,502,486.83033300005377
2015-10-27 17:26:29.428052,507,486.83033300005377
2015-10-27 17:26:29.428133,519,486.83033300005377
2015-10-27 17:26:29.443726,553,486.83033300005377
2015-10-27 17:26:29.443856,635,486.83033300005377
2015-10-27 17:26:29.443922,731,486.83033300005377
2015-10-27 17:26:29.459737,738,486.83033300005377
2015-10-27 17:26:29.459869,645,486.83033300005377
2015-10-27 17:26:29.459935,472,486.83033300005377
2015-10-27 17:26:29.475596,349,486.89115547565274
2015-10-27 17:26:29.475690,229,486.67392174736568
2015-10-27 17:26:29.475755,229,486.4766569186026
2015-10-27 17:26:29.491604,345,486.27939208983952
2015-10-27 17:26:29.491712,439,486.08212726107644
2015-10-27 17:26:29.491778,482,485.88486243231335
2015-10-27 17:26:29.507624,507,485.68759760355033
2015-10-27 17:26:29.507787,522,485.49033277478725
2015-10-27 17:26:29.507853,528,485.29306794602417
2015-10-27 17:26:29.523659,528,485.09580311726108
2015-10-27 17:26:29.523813,529,484.898538288498
2015-10-27 17:26:29.523880,534,484.70127345973492
2015-10-27 17:26:29.523943,538,484.5040086309719
2015-10-27 17:26:29.539697,540,484.23298037435478
2015-10-27 17:26:29.539787,540,484.23344493363925
2015-10-27 17:26:29.539851,544,484.30718346583632
2015-10-27 17:26:29.555788,545,484.38092199803344
2015-10-27 17:26:29.555880,548,484.45466053023051
2015-10-27 17:26:29.555944,549,484.52839906242764
2015-10-27 17:26:29.571820,550,484.60213759462471
2015-10-27 17:26:29.572039,552,484.67587612682183
2015-10-27 17:26:29.572123,556,484.7496146590189
2015-10-27 17:26:29.587646,559,484.82335319121603
2015-10-27 17:26:29.587735,560,484.8970917234131
2015-10-27 17:26:29.587801,562,484.97083025561017
2015-10-27 17:26:29.603757,563,485.04456878780729
2015-10-27 17:26:29.603847,567,485.11830732000436
2015-10-27 17:26:29.603912,574,485.19204585220149
2015-10-27 17:26:29.619503,579,485.26578438439856
2015-10-27 17:26:29.619593,582,485.33952291659568
2015-10-27 17:26:29.619659,588,485.41326144879275
2015-10-27 17:26:29.635439,595,485.48699998098988
2015-10-27 17:26:29.635494,604,485.56073851318695
2015-10-27 17:26:29.635531,610,485.63447704538402
2015-10-27 17:26:29.651484,619,485.70821557758114
2015-10-27 17:26:29.651547,630,485.78195410977821
2015-10-27 17:26:29.651591,638,485.85569264197534
2015-10-27 17:26:29.667388,648,485.92943117417241
2015-10-27 17:26:29.667485,659,486.00316970636953
2015-10-27 17:26:29.667562,669,486.0769082385666
2015-10-27 17:26:29.683338,674,486.15064677076367
2015-10-27 17:26:29.683432,676,486.2243853029608
2015-10-27 17:26:29.683472,676,486.29812383515787
2015-10-27 17:26:29.700170,674,486.37186236735499
2015-10-27 17:26:29.700254,673,486.44560089955206
2015-10-27 17:26:29.700315,669,486.51933943174919
2015-10-27 17:26:29.715303,661,486.59307796394626
2015-10-27 17:26:29.715358,652,486.66681649614338
2015-10-27 17:26:29.715396,637,486.74055502834045
2015-10-27 17:26:29.731319,621,486.81429356053752
2015-10-27 17:26:29.731385,604,486.88803209273465
2015-10-27 17:26:29.731423,583,486.96177062493172
2015-10-27 17:26:29.747332,563,487.03550915712884
2015-10-27 17:26:29.747399,543,487.10924768932591
2015-10-27 17:26:29.747436,527,487.18298622152304
2015-10-27 17:26:29.763297,510,487.25672475372011
2015-10-27 17:26:29.763365,496,487.33046328591723
2015-10-27 17:26:29.763403,485,487.4042018181143
2015-10-27 17:26:29.763440,474,487.47794035031137
2015-10-27 17:26:29.779313,465,487.5516788825085
2015-10-27 17:26:29.779367,459,487.62541741470562
2015-10-27 17:26:29.779403,455,487.69915594690269
2015-10-27 17:26:29.795355,451,487.77289447909982
2015-10-27 17:26:29.795409,448,487.84663301129689
2015-10-27 17:26:29.795446,445,487.92037154349401
2015-10-27 17:26:29.811323,444,487.99411007569108
2015-10-27 17:26:29.811415,446,488.06784860788821
2015-10-27 17:26:29.811488,446,488.14158714008528
2015-10-27 17:26:29.830446,446,488.21532567228235
2015-10-27 17:26:29.830539,447,488.28906420447947
2015-10-27 17:26:29.830609,450,488.36280273667654
2015-10-27 17:26:29.843446,452,488.43654126887367
2015-10-27 17:26:29.843562,454,488.51027980107074
2015-10-27 17:26:29.843648,457,488.58401833326786
2015-10-27 17:26:29.859441,458,488.65775686546493
2015-10-27 17:26:29.859544,459,488.73149539766206
2015-10-27 17:26:29.859583,461,488.80523392985913
2015-10-27 17:26:29.875275,465,488.8789724620562
2015-10-27 17:26:29.875361,466,488.95271099425332
2015-10-27 17:26:29.875425,467,489.02644952645039
2015-10-27 17:26:29.891309,469,489.10018805864752
2015-10-27 17:26:29.891366,469,489.17392659084459
2015-10-27 17:26:29.891404,473,489.2476651230416
2015-10-27 17:26:29.907619,473,489.32140365523873
2015-10-27 17:26:29.907817,474,489.39514218743579
2015-10-27 17:26:29.907986,477,489.46888071963292
2015-10-27 17:26:29.923497,479,489.54261925182999
2015-10-27 17:26:29.923590,478,489.61635778402712
2015-10-27 17:26:29.923655,477,489.69009631622419
2015-10-27 17:26:29.939541,478,489.76383484842125
2015-10-27 17:26:29.939635,478,489.83757338061838
2015-10-27 17:26:29.939701,478,489.91131191281545
2015-10-27 17:26:29.955450,476,489.98505044501258
2015-10-27 17:26:29.955549,475,490.0587889772097
2015-10-27 17:26:29.955614,475,490.13252750940683
2015-10-27 17:26:29.971494,476,490.2062660416039
2015-10-27 17:26:29.971605,477,490.28000457380102
2015-10-27 17:26:29.971671,476,490.35374310599809
2015-10-27 17:26:29.987461,477,490.42748163819522
2015-10-27 17:26:29.987570,477,490.50122017039229
2015-10-27 17:26:29.987636,474,490.5141362269905
2015-10-27 17:26:30.003326,473,490.80510848747468
2015-10-27 17:26:30.003437,474,491.07611184843483
2015-10-27 17:26:30.003504,475,491.34711520939499
2015-10-27 17:26:30.019327,474,491.61811857035525
2015-10-27 17:26:30.019438,474,491.8891219313154
2015-10-27 17:26:30.019505,476,492.16012529227561
2015-10-27 17:26:30.019569,477,492.43112865323576
2015-10-27 17:26:30.035427,478,492.70213201419591
2015-10-27 17:26:30.035518,479,492.97313537515618
2015-10-27 17:26:30.035583,480,493.24413873611633
2015-10-27 17:26:30.051394,480,493.51514209707648
2015-10-27 17:26:30.051581,480,493.78614545803663
2015-10-27 17:26:30.051650,478,494.13091224685087
2015-10-27 17:26:30.067381,479,494.20418621976347
2015-10-27 17:26:30.067472,481,494.20418621976347
2015-10-27 17:26:30.067540,481,494.20418621976347
2015-10-27 17:26:30.083331,480,494.20418621976347
2015-10-27 17:26:30.083424,482,494.20418621976347
2015-10-27 17:26:30.083499,481,494.20418621976347
2015-10-27 17:26:30.099410,480,494.20418621976347
2015-10-27 17:26:30.099569,478,494.20418621976347
2015-10-27 17:26:30.099692,476,494.20418621976347
2015-10-27 17:26:30.115385,480,494.20418621976347
2015-10-27 17:26:30.115476,486,494.20418621976347
2015-10-27 17:26:30.115542,489,494.20418621976347
2015-10-27 17:26:30.131620,488,494.20418621976347
2015-10-27 17:26:30.131866,484,494.20418621976347
2015-10-27 17:26:30.131999,484,494.20418621976347
2015-10-27 17:26:30.147314,486,494.20418621976347
2015-10-27 17:26:30.147433,487,494.20418621976347
2015-10-27 17:26:30.147525,488,494.20418621976347
2015-10-27 17:26:30.163364,488,494.20418621976347
2015-10-27 17:26:30.163473,487,494.20418621976347
2015-10-27 17:26:30.163563,485,494.20418621976347
2015-10-27 17:26:30.179271,484,494.20418621976347
2015-10-27 17:26:30.179365,485,494.20418621976347
2015-10-27 17:26:30.179457,487,494.20418621976347
2015-10-27 17:26:30.195282,489,494.20418621976347
2015-10-27 17:26:30.195377,491,494.20418621976347
2015-10-27 17:26:30.195444,490,494.20418621976347
2015-10-27 17:26:30.211287,491,494.20418621976347
2015-10-27 17:26:30.211400,492,494.20418621976347
2015-10-27 17:26:30.211480,493,494.20418621976347
2015-10-27 17:26:30.227252,494,494.20418621976347
2015-10-27 17:26:30.227331,494,494.20418621976347
2015-10-27 17:26:30.227377,496,494.20418621976347
2015-10-27 17:26:30.243274,499,494.20418621976347
2015-10-27 17:26:30.243380,501,494.20418621976347
2015-10-27 17:26:30.243447,500,494.20418621976347
2015-10-27 17:26:30.259279,497,494.20418621976347
2015-10-27 17:26:30.259390,497,494.20418621976347
2015-10-27 17:26:30.259456,502,494.20418621976347
2015-10-27 17:26:30.259519,506,494.20418621976347
2015-10-27 17:26:30.275333,505,494.20418621976347
2015-10-27 17:26:30.275423,504,494.20418621976347
2015-10-27 17:26:30.275489,506,494.20418621976347
2015-10-27 17:26:30.291681,508,494.20418621976347
2015-10-27 17:26:30.291813,510,494.20418621976347
2015-10-27 17:26:30.292467,513,494.20418621976347
2015-10-27 17:26:30.307458,509,494.20418621976347
2015-10-27 17:26:30.307557,500,494.20418621976347
2015-10-27 17:26:30.307673,493,494.20418621976347
2015-10-27 17:26:30.323380,490,494.20418621976347
2015-10-27 17:26:30.323529,493,494.20418621976347
2015-10-27 17:26:30.323715,493,494.20418621976347
2015-10-27 17:26:30.339544,493,494.20418621976347
2015-10-27 17:26:30.339635,494,494.20418621976347
2015-10-27 17:26:30.339699,496,494.20418621976347
2015-10-27 17:26:30.355591,496,494.20418621976347
2015-10-27 17:26:30.355707,495,494.20418621976347
2015-10-27 17:26:30.355771,496,494.20418621976347
2015-10-27 17:26:30.371286,498,494.20418621976347
2015-10-27 17:26:30.371368,496,494.20418621976347
2015-10-27 17:26:30.371414,495,494.20418621976347
2015-10-27 17:26:30.387286,496,494.20418621976347
2015-10-27 17:26:30.387377,497,494.20418621976347
2015-10-27 17:26:30.387443,497,494.20418621976347
2015-10-27 17:26:30.403545,501,494.20418621976347
2015-10-27 17:26:30.403663,513,494.20418621976347
2015-10-27 17:26:30.403730,551,494.20418621976347
2015-10-27 17:26:30.419473,633,494.20418621976347
2015-10-27 17:26:30.419690,709,494.20418621976347
2015-10-27 17:26:30.419765,698,494.20418621976347
2015-10-27 17:26:30.435450,600,494.20418621976347
2015-10-27 17:26:30.435581,445,494.20418621976347
2015-10-27 17:26:30.435647,342,494.20263828462424
2015-10-27 17:26:30.451445,239,493.9741044510784
2015-10-27 17:26:30.451539,257,493.85556871170093
2015-10-27 17:26:30.451604,367,493.73703297232339
2015-10-27 17:26:30.467315,447,493.61849723294597
2015-10-27 17:26:30.467424,483,493.49996149356843
2015-10-27 17:26:30.467490,504,493.3814257541909
2015-10-27 17:26:30.483520,516,493.26289001481337
2015-10-27 17:26:30.483631,524,493.14435427543594
2015-10-27 17:26:30.483697,531,493.02581853605841
2015-10-27 17:26:30.499185,536,492.90728279668082
2015-10-27 17:26:30.499264,538,492.78874705730328
2015-10-27 17:26:30.499309,537,492.67021131792586
2015-10-27 17:26:30.499352,539,492.55167557854833
2015-10-27 17:26:30.515410,540,492.43313983917079
2015-10-27 17:26:30.515500,542,492.32860353224629
2015-10-27 17:26:30.515564,545,492.60957645346804
2015-10-27 17:26:30.531661,547,492.8620792797285
2015-10-27 17:26:30.531759,550,493.11458210598914
2015-10-27 17:26:30.531847,552,493.36708493224967
2015-10-27 17:26:30.547462,554,493.61958775851019
2015-10-27 17:26:30.547551,554,493.87209058477072
2015-10-27 17:26:30.547616,556,494.12459341103124
2015-10-27 17:26:30.563397,559,494.37709623729182
2015-10-27 17:26:30.563486,562,494.62959906355235
2015-10-27 17:26:30.563567,564,494.88210188981287
2015-10-27 17:26:30.579489,566,495.1346047160734
2015-10-27 17:26:30.579579,569,495.38710754233392
2015-10-27 17:26:30.579645,574,495.63961036859445
2015-10-27 17:26:30.595664,583,495.89211319485503
2015-10-27 17:26:30.595754,590,496.14461602111555
2015-10-27 17:26:30.595821,592,496.39711884737608
2015-10-27 17:26:30.611414,597,496.6496216736366
2015-10-27 17:26:30.611570,605,496.90212449989713
2015-10-27 17:26:30.611656,615,497.15462732615765
2015-10-27 17:26:30.627389,623,497.40713015241823
2015-10-27 17:26:30.627481,632,497.65963297867876
2015-10-27 17:26:30.627546,641,497.91213580493928
2015-10-27 17:26:30.643370,648,498.16463863119981
2015-10-27 17:26:30.643461,656,498.41714145746033
2015-10-27 17:26:30.643526,662,498.66964428372086
2015-10-27 17:26:30.659435,668,498.92214710998138
2015-10-27 17:26:30.659556,669,499.17464993624196
2015-10-27 17:26:30.659622,668,499.42715276250249
2015-10-27 17:26:30.675221,665,499.67965558876301
2015-10-27 17:26:30.675417,661,499.93215841502354
2015-10-27 17:26:30.675497,654,500.18466124128406
2015-10-27 17:26:30.691197,646,500.43716406754459
2015-10-27 17:26:30.691291,634,500.68966689380517
2015-10-27 17:26:30.691356,617,500.94216972006569
2015-10-27 17:26:30.707304,602,501.19467254632622
2015-10-27 17:26:30.707415,584,501.44717537258674
2015-10-27 17:26:30.707481,565,501.69967819884727
2015-10-27 17:26:30.723124,546,501.95218102510779
2015-10-27 17:26:30.723207,528,502.20468385136837
2015-10-27 17:26:30.723256,513,502.4571866776289
2015-10-27 17:26:30.739157,501,502.70968950388942
2015-10-27 17:26:30.739326,489,502.96219233014995
2015-10-27 17:26:30.739446,480,503.21469515641047
2015-10-27 17:26:30.739573,473,503.467197982671
2015-10-27 17:26:30.755478,467,503.71970080893158
2015-10-27 17:26:30.755639,464,503.9722036351921
2015-10-27 17:26:30.755711,461,504.22470646145263
2015-10-27 17:26:30.771321,457,504.47720928771315
2015-10-27 17:26:30.771411,455,504.72971211397368
2015-10-27 17:26:30.771477,456,504.9822149402342
2015-10-27 17:26:30.787384,456,505.23471776649473
2015-10-27 17:26:30.787474,456,505.48722059275531
2015-10-27 17:26:30.787538,453,505.73972341901583
2015-10-27 17:26:30.803167,455,505.99222624527641
2015-10-27 17:26:30.803258,458,506.24472907153694
2015-10-27 17:26:30.803324,458,506.49723189779752
2015-10-27 17:26:30.819346,460,506.74973472405804
2015-10-27 17:26:30.819438,464,507.00223755031863
2015-10-27 17:26:30.819503,464,507.25474037657915
2015-10-27 17:26:30.835410,468,507.50724320283967
2015-10-27 17:26:30.835500,470,507.75974602910026
2015-10-27 17:26:30.835565,471,508.01224885536078
2015-10-27 17:26:30.851121,471,508.26475168162131
2015-10-27 17:26:30.851200,473,508.51725450788183
2015-10-27 17:26:30.851255,478,508.76975733414235
2015-10-27 17:26:30.867229,480,509.02226016040299
2015-10-27 17:26:30.867331,481,509.27476298666352
2015-10-27 17:26:30.867403,482,509.52726581292404
2015-10-27 17:26:30.883302,483,509.77976863918457
2015-10-27 17:26:30.883395,484,510.03227146544509
2015-10-27 17:26:30.883492,486,510.28477429170567
2015-10-27 17:26:30.899140,487,510.5372771179662
2015-10-27 17:26:30.899297,485,510.78977994422672
2015-10-27 17:26:30.899398,482,511.04228277048725
2015-10-27 17:26:30.915330,484,511.29478559674777
2015-10-27 17:26:30.915424,486,511.54728842300841
2015-10-27 17:26:30.915489,486,511.79979124926894
2015-10-27 17:26:30.931110,486,512.05229407552952
2015-10-27 17:26:30.931204,486,512.30479690179004
2015-10-27 17:26:30.931270,487,512.55729972805057
2015-10-27 17:26:30.947400,487,512.80980255431109
2015-10-27 17:26:30.947509,484,513.06230538057162
2015-10-27 17:26:30.947580,483,513.31480820683214
2015-10-27 17:26:30.963340,482,513.56731103309266
2015-10-27 17:26:30.963449,481,513.82136179449242
2015-10-27 17:26:30.963516,480,514.30239845429878
2015-10-27 17:26:30.979116,482,514.67343701993684
2015-10-27 17:26:30.979222,483,515.0444755855749
2015-10-27 17:26:30.979288,484,515.41551415121296
2015-10-27 17:26:30.979350,485,515.78655271685102
2015-10-27 17:26:30.995152,485,516.15759128248919
2015-10-27 17:26:30.995277,483,516.52862984812714
2015-10-27 17:26:30.995379,484,516.8996684137652
2015-10-27 17:26:31.011145,484,517.27070697940326
2015-10-27 17:26:31.011234,482,517.64174554504132
2015-10-27 17:26:31.011299,482,518.01278411067938
2015-10-27 17:26:31.027369,484,518.38382267631744
2015-10-27 17:26:31.027458,484,518.7548612419555
2015-10-27 17:26:31.027522,484,519.12589980759356
2015-10-27 17:26:31.043269,483,519.48293894077858
2015-10-27 17:26:31.043358,486,519.45446884581747
2015-10-27 17:26:31.043422,485,519.45446884581747
2015-10-27 17:26:31.059129,486,519.45446884581747
2015-10-27 17:26:31.059195,487,519.45446884581747
2015-10-27 17:26:31.059241,487,519.45446884581747
2015-10-27 17:26:31.075200,485,519.45446884581747
2015-10-27 17:26:31.075291,487,519.45446884581747
2015-10-27 17:26:31.075356,489,519.45446884581747
2015-10-27 17:26:31.091032,489,519.45446884581747
2015-10-27 17:26:31.091100,489,519.45446884581747
2015-10-27 17:26:31.091147,489,519.45446884581747
2015-10-27 17:26:31.107186,489,519.45446884581747
2015-10-27 17:26:31.107276,487,519.45446884581747
2015-10-27 17:26:31.107342,486,519.45446884581747
2015-10-27 17:26:31.123092,485,519.45446884581747
2015-10-27 17:26:31.123185,484,519.45446884581747
2015-10-27 17:26:31.123252,482,519.45446884581747
2015-10-27 17:26:31.139213,485,519.45446884581747
2015-10-27 17:26:31.139305,487,519.45446884581747
2015-10-27 17:26:31.139371,487,519.45446884581747
2015-10-27 17:26:31.155345,486,519.45446884581747
2015-10-27 17:26:31.155438,484,519.45446884581747
2015-10-27 17:26:31.155507,485,519.45446884581747
2015-10-27 17:26:31.171153,483,519.45446884581747
2015-10-27 17:26:31.171341,481,519.45446884581747
2015-10-27 17:26:31.171411,483,519.45446884581747
2015-10-27 17:26:31.187015,485,519.45446884581747
2015-10-27 17:26:31.187192,486,519.45446884581747
2015-10-27 17:26:31.187306,485,519.45446884581747
2015-10-27 17:26:31.203145,485,519.45446884581747
2015-10-27 17:26:31.203255,486,519.45446884581747
2015-10-27 17:26:31.203322,487,519.45446884581747
2015-10-27 17:26:31.219199,487,519.45446884581747
2015-10-27 17:26:31.219308,484,519.45446884581747
2015-10-27 17:26:31.219374,483,519.45446884581747
2015-10-27 17:26:31.235171,488,519.45446884581747
2015-10-27 17:26:31.235279,490,519.45446884581747
2015-10-27 17:26:31.235345,489,519.45446884581747
2015-10-27 17:26:31.235406,491,519.45446884581747
2015-10-27 17:26:31.251222,492,519.45446884581747
2015-10-27 17:26:31.251312,493,519.45446884581747
2015-10-27 17:26:31.251377,493,519.45446884581747
2015-10-27 17:26:31.267243,496,519.45446884581747
2015-10-27 17:26:31.267383,498,519.45446884581747
2015-10-27 17:26:31.267491,490,519.45446884581747
2015-10-27 17:26:31.283391,482,519.45446884581747
2015-10-27 17:26:31.283484,480,519.45446884581747
2015-10-27 17:26:31.283569,479,519.45446884581747
2015-10-27 17:26:31.299009,480,519.45446884581747
2015-10-27 17:26:31.299197,482,519.45446884581747
2015-10-27 17:26:31.299284,481,519.45446884581747
2015-10-27 17:26:31.315017,480,519.45446884581747
2015-10-27 17:26:31.315090,480,519.45446884581747
2015-10-27 17:26:31.315143,479,519.45446884581747
2015-10-27 17:26:31.330969,478,519.45446884581747
2015-10-27 17:26:31.331056,477,519.45446884581747
2015-10-27 17:26:31.331133,475,519.45446884581747
2015-10-27 17:26:31.346947,475,519.45446884581747
2015-10-27 17:26:31.347040,477,519.45446884581747
2015-10-27 17:26:31.347080,479,519.45446884581747
2015-10-27 17:26:31.363040,477,519.45446884581747
2015-10-27 17:26:31.363172,478,519.45446884581747
2015-10-27 17:26:31.363251,486,519.45446884581747
2015-10-27 17:26:31.379001,506,519.45446884581747
2015-10-27 17:26:31.379098,566,519.45446884581747
2015-10-27 17:26:31.379171,658,519.45446884581747
2015-10-27 17:26:31.394950,686,519.45446884581747
2015-10-27 17:26:31.395042,633,519.45446884581747
2015-10-27 17:26:31.395115,501,519.45446884581747
2015-10-27 17:26:31.411080,371,519.45446884581747
2015-10-27 17:26:31.411182,269,519.32319620278463
2015-10-27 17:26:31.411256,210,518.96886306756426
2015-10-27 17:26:31.426925,291,518.61452993234388
2015-10-27 17:26:31.427058,389,518.26019679712351
2015-10-27 17:26:31.427174,442,517.90586366190314
2015-10-27 17:26:31.442902,467,517.55153052668277
2015-10-27 17:26:31.442968,483,517.1971973914624
2015-10-27 17:26:31.443025,491,516.84286425624214
2015-10-27 17:26:31.458970,494,516.48853112102165
2015-10-27 17:26:31.459098,496,516.13419798580117
2015-10-27 17:26:31.459153,497,515.77986485058091
2015-10-27 17:26:31.475061,500,515.42553171536053
2015-10-27 17:26:31.475168,502,515.07119858014016
2015-10-27 17:26:31.475238,504,514.71686544491979
2015-10-27 17:26:31.475307,508,514.36253230969942
2015-10-27 17:26:31.490966,508,514.15719927835562
2015-10-27 17:26:31.491046,507,514.00320861729074
2015-10-27 17:26:31.491105,507,513.8440415753239
2015-10-27 17:26:31.506929,509,513.68487453335706
2015-10-27 17:26:31.507019,511,513.52570749139022
2015-10-27 17:26:31.507087,512,513.36654044942327
2015-10-27 17:26:31.522922,514,513.20737340745643
2015-10-27 17:26:31.523013,515,513.04820636548948
2015-10-27 17:26:31.523084,518,512.88903932352275
2015-10-27 17:26:31.539488,521,512.72987228155591
2015-10-27 17:26:31.539577,524,512.57070523958919
2015-10-27 17:26:31.539643,526,512.41153819762224
2015-10-27 17:26:31.555308,530,512.25237115565551
2015-10-27 17:26:31.555400,534,512.09320411368856
2015-10-27 17:26:31.555474,540,511.93403707172178
2015-10-27 17:26:31.570931,545,511.77487002975494
2015-10-27 17:26:31.571063,550,511.61570298778815
2015-10-27 17:26:31.571136,559,511.45653594582132
2015-10-27 17:26:31.586971,566,511.29736890385448
2015-10-27 17:26:31.587062,572,511.13820186188769
2015-10-27 17:26:31.587131,578,510.9790348199208
2015-10-27 17:26:31.602860,588,510.81986777795402
2015-10-27 17:26:31.602915,598,510.66070073598718
2015-10-27 17:26:31.602953,605,510.50153369402034
2015-10-27 17:26:31.618886,612,510.3423666520535
2015-10-27 17:26:31.618985,619,510.18319961008672
2015-10-27 17:26:31.619060,621,510.02403256811982
2015-10-27 17:26:31.634881,622,509.86486552615304
2015-10-27 17:26:31.634979,622,509.70569848418614
2015-10-27 17:26:31.635052,618,509.54653144221936
2015-10-27 17:26:31.650854,613,509.38736440025252
2015-10-27 17:26:31.650911,605,509.22819735828574
2015-10-27 17:26:31.650948,594,509.06903031631884
2015-10-27 17:26:31.666838,580,508.90986327435206
2015-10-27 17:26:31.666889,564,508.75069623238517
2015-10-27 17:26:31.666926,545,508.59152919041838
2015-10-27 17:26:31.682821,526,508.43236214845155
2015-10-27 17:26:31.682955,507,508.27319510648476
2015-10-27 17:26:31.682996,491,508.11402806451792
2015-10-27 17:26:31.698805,475,507.95486102255109
2015-10-27 17:26:31.698873,459,507.7956939805843
2015-10-27 17:26:31.698911,446,507.63652693861741
2015-10-27 17:26:31.714835,435,507.47735989665057
2015-10-27 17:26:31.714903,427,507.31819285468379
2015-10-27 17:26:31.714941,422,507.15902581271689
2015-10-27 17:26:31.714977,419,506.99985877075005
2015-10-27 17:26:31.731026,414,506.84069172878316
2015-10-27 17:26:31.731112,410,506.68152468681637
2015-10-27 17:26:31.731179,407,506.52235764484948
2015-10-27 17:26:31.746871,405,506.36319060288264
2015-10-27 17:26:31.746936,403,506.20402356091574
2015-10-27 17:26:31.746980,401,506.04485651894896
2015-10-27 17:26:31.762988,402,505.88568947698212
2015-10-27 17:26:31.763085,404,505.72652243501523
2015-10-27 17:26:31.763155,405,505.56735539304839
2015-10-27 17:26:31.778923,406,505.40818835108149
2015-10-27 17:26:31.779147,407,505.24902130911465
2015-10-27 17:26:31.779384,409,505.08985426714787
2015-10-27 17:26:31.794920,411,504.93068722518098
2015-10-27 17:26:31.795010,416,504.77152018321414
2015-10-27 17:26:31.795084,419,504.6123531412473
2015-10-27 17:26:31.811013,422,504.45318609928046
2015-10-27 17:26:31.811104,422,504.29401905731362
2015-10-27 17:26:31.811169,425,504.13485201534678
2015-10-27 17:26:31.826832,430,503.97568497337994
2015-10-27 17:26:31.826920,432,503.81651793141305
2015-10-27 17:26:31.827046,435,503.65735088944626
2015-10-27 17:26:31.843107,438,503.49818384747942
2015-10-27 17:26:31.843421,441,503.33901680551253
2015-10-27 17:26:31.843688,441,503.17984976354569
2015-10-27 17:26:31.859664,440,503.02068272157891
2015-10-27 17:26:31.859973,439,502.86151567961201
2015-10-27 17:26:31.860234,440,502.70234863764517
2015-10-27 17:26:31.874788,442,502.54318159567828
2015-10-27 17:26:31.874858,442,502.38401455371149
2015-10-27 17:26:31.874905,442,502.2248475117446
2015-10-27 17:26:31.891119,442,502.06568046977776
2015-10-27 17:26:31.891287,442,501.90651342781086
2015-10-27 17:26:31.891444,445,501.74734638584408
2015-10-27 17:26:31.906822,446,501.58817934387724
2015-10-27 17:26:31.906899,443,501.42901230191035
2015-10-27 17:26:31.907008,444,501.26984525994357
2015-10-27 17:26:31.922807,446,501.11067821797673
2015-10-27 17:26:31.922919,448,500.95151117600989
2015-10-27 17:26:31.922992,448,500.79234413404305
2015-10-27 17:26:31.938889,448,500.76444973510905
2015-10-27 17:26:31.938985,451,500.95961582836253
2015-10-27 17:26:31.939360,454,501.15478192161612
2015-10-27 17:26:31.954859,456,501.3499480148696
2015-10-27 17:26:31.954969,457,501.54511410812313
2015-10-27 17:26:31.955035,457,501.74028020137672
2015-10-27 17:26:31.955145,459,501.9354462946302
2015-10-27 17:26:31.971164,459,502.13061238788379
2015-10-27 17:26:31.971356,460,502.32577848113726
2015-10-27 17:26:31.971429,462,502.5209445743908
2015-10-27 17:26:31.986955,464,502.71611066764433
2015-10-27 17:26:31.988583,465,502.91127676089786
2015-10-27 17:26:31.988664,463,503.1064428541514
2015-10-27 17:26:32.002908,464,503.30160894740493
2015-10-27 17:26:32.003002,468,503.49677504065852
2015-10-27 17:26:32.003080,470,503.54294103003548
2015-10-27 17:26:32.018883,470,503.53776464913341
2015-10-27 17:26:32.018943,470,503.53776464913341
2015-10-27 17:26:32.018983,471,503.53776464913341
2015-10-27 17:26:32.034863,473,503.53776464913341
2015-10-27 17:26:32.034918,474,503.53776464913341
2015-10-27 17:26:32.034955,474,503.53776464913341
2015-10-27 17:26:32.050995,475,503.53776464913341
2015-10-27 17:26:32.051070,475,503.53776464913341
2015-10-27 17:26:32.051124,476,503.53776464913341
2015-10-27 17:26:32.067035,478,503.53776464913341
2015-10-27 17:26:32.067127,480,503.53776464913341
2015-10-27 17:26:32.067191,481,503.53776464913341
2015-10-27 17:26:32.082913,481,503.53776464913341
2015-10-27 17:26:32.083004,481,503.53776464913341
2015-10-27 17:26:32.083068,483,503.53776464913341
2015-10-27 17:26:32.098863,483,503.53776464913341
2015-10-27 17:26:32.098931,484,503.53776464913341
2015-10-27 17:26:32.098979,486,503.53776464913341
2015-10-27 17:26:32.115045,486,503.53776464913341
2015-10-27 17:26:32.115164,487,503.53776464913341
2015-10-27 17:26:32.115212,489,503.53776464913341
2015-10-27 17:26:32.130978,489,503.53776464913341
2015-10-27 17:26:32.131187,489,503.53776464913341
2015-10-27 17:26:32.131275,491,503.53776464913341
2015-10-27 17:26:32.146884,493,503.53776464913341
2015-10-27 17:26:32.147039,494,503.53776464913341
2015-10-27 17:26:32.147335,494,503.53776464913341
2015-10-27 17:26:32.162827,495,503.53776464913341
2015-10-27 17:26:32.163010,494,503.53776464913341
2015-10-27 17:26:32.163148,495,503.53776464913341
2015-10-27 17:26:32.178921,495,503.53776464913341
2015-10-27 17:26:32.179096,495,503.53776464913341
2015-10-27 17:26:32.179273,496,503.53776464913341
2015-10-27 17:26:32.195016,498,503.53776464913341
2015-10-27 17:26:32.195124,498,503.53776464913341
2015-10-27 17:26:32.195326,498,503.53776464913341
2015-10-27 17:26:32.195394,498,503.53776464913341
2015-10-27 17:26:32.211149,501,503.53776464913341
2015-10-27 17:26:32.211238,503,503.53776464913341
2015-10-27 17:26:32.211427,505,503.53776464913341
2015-10-27 17:26:32.226990,507,503.53776464913341
2015-10-27 17:26:32.227079,511,503.53776464913341
2015-10-27 17:26:32.227154,510,503.53776464913341
2015-10-27 17:26:32.242791,507,503.53776464913341
2015-10-27 17:26:32.242936,511,503.53776464913341
2015-10-27 17:26:32.242985,515,503.53776464913341
2015-10-27 17:26:32.258895,518,503.53776464913341
2015-10-27 17:26:32.258975,519,503.53776464913341
2015-10-27 17:26:32.259035,521,503.53776464913341
2015-10-27 17:26:32.275186,525,503.53776464913341
2015-10-27 17:26:32.275267,527,503.53776464913341
2015-10-27 17:26:32.275343,531,503.53776464913341
2015-10-27 17:26:32.290804,532,503.53776464913341
2015-10-27 17:26:32.290898,524,503.53776464913341
2015-10-27 17:26:32.290971,513,503.53776464913341
2015-10-27 17:26:32.306774,507,503.53776464913341
2015-10-27 17:26:32.306838,508,503.53776464913341
2015-10-27 17:26:32.306882,512,503.53776464913341
2015-10-27 17:26:32.322794,511,503.53776464913341
2015-10-27 17:26:32.322893,510,503.53776464913341
2015-10-27 17:26:32.322936,511,503.53776464913341
2015-10-27 17:26:32.338797,514,503.53776464913341
2015-10-27 17:26:32.338904,516,503.53776464913341
2015-10-27 17:26:32.338986,515,503.53776464913341
2015-10-27 17:26:32.354818,517,503.53776464913341
2015-10-27 17:26:32.354916,519,503.53776464913341
2015-10-27 17:26:32.354969,519,503.53776464913341
2015-10-27 17:26:32.370753,518,503.53776464913341
2015-10-27 17:26:32.370812,519,503.53776464913341
2015-10-27 17:26:32.370850,521,503.53776464913341
2015-10-27 17:26:32.386789,523,503.53776464913341
2015-10-27 17:26:32.386885,529,503.53776464913341
2015-10-27 17:26:32.386952,544,503.53776464913341
2015-10-27 17:26:32.402765,590,503.53776464913341
2015-10-27 17:26:32.402823,684,503.53776464913341
2015-10-27 17:26:32.402860,750,503.53776464913341
2015-10-27 17:26:32.418718,736,503.53776464913341
2015-10-27 17:26:32.418846,632,503.53776464913341
2015-10-27 17:26:32.418923,478,503.53776464913341
2015-10-27 17:26:32.434703,358,503.55458788706511
2015-10-27 17:26:32.434832,253,503.47496124553868
2015-10-27 17:26:32.434914,301,503.39533460401225
2015-10-27 17:26:32.450710,413,503.31570796248587
2015-10-27 17:26:32.450795,484,503.23608132095939
2015-10-27 17:26:32.450847,518,503.19282537814701
2015-10-27 17:26:32.450898,537,503.62377064235721
2015-10-27 17:26:32.466809,546,504.22601258973424
2015-10-27 17:26:32.466885,549,504.81272539440522
2015-10-27 17:26:32.466938,553,505.39943819907626
2015-10-27 17:26:32.482721,557,505.98615100374724
2015-10-27 17:26:32.482776,560,506.57286380841828
2015-10-27 17:26:32.482813,562,507.15957661308926
2015-10-27 17:26:32.498782,563,507.74628941776024
2015-10-27 17:26:32.498856,566,508.33300222243122
2015-10-27 17:26:32.498908,568,508.91971502710214
2015-10-27 17:26:32.514700,569,509.50642783177312
2015-10-27 17:26:32.514764,569,510.0931406364441
2015-10-27 17:26:32.514820,572,510.67985344111509
2015-10-27 17:26:32.530688,574,511.26656624578607
2015-10-27 17:26:32.530743,578,511.8532790504571
2015-10-27 17:26:32.530780,581,512.43999185512803
2015-10-27 17:26:32.546717,584,513.02670465979895
2015-10-27 17:26:32.546783,586,513.61341746446999
2015-10-27 17:26:32.546828,590,514.20013026914103
2015-10-27 17:26:32.562656,594,514.78684307381195
2015-10-27 17:26:32.562714,599,515.37355587848288
2015-10-27 17:26:32.562757,603,515.9602686831538
2015-10-27 17:26:32.578892,607,516.54698148782484
2015-10-27 17:26:32.578983,612,517.13369429249587
2015-10-27 17:26:32.579192,619,517.7204070971668
2015-10-27 17:26:32.595103,624,518.30711990183772
2015-10-27 17:26:32.595194,632,518.89383270650865
2015-10-27 17:26:32.595260,639,519.48054551117968
2015-10-27 17:26:32.610948,648,520.06725831585072
2015-10-27 17:26:32.611046,658,520.65397112052165
2015-10-27 17:26:32.611112,668,521.24068392519268
2015-10-27 17:26:32.626880,678,521.82739672986372
2015-10-27 17:26:32.626986,687,522.41410953453465
2015-10-27 17:26:32.627051,695,523.00082233920557
2015-10-27 17:26:32.642999,699,523.58753514387649
2015-10-27 17:26:32.643094,705,524.17424794854753
2015-10-27 17:26:32.643160,708,524.76096075321857
2015-10-27 17:26:32.658912,706,525.34767355788949
2015-10-27 17:26:32.659074,702,525.93438636256042
2015-10-27 17:26:32.659141,696,526.52109916723134
2015-10-27 17:26:32.674821,689,527.10781197190238
2015-10-27 17:26:32.674930,681,527.69452477657342
2015-10-27 17:26:32.674996,669,528.28123758124434
2015-10-27 17:26:32.690678,654,528.86795038591526
2015-10-27 17:26:32.690824,635,529.4546631905863
2015-10-27 17:26:32.690897,614,530.04137599525734
2015-10-27 17:26:32.691178,595,530.62808879992826
2015-10-27 17:26:32.706952,572,531.21480160459919
2015-10-27 17:26:32.707041,554,531.80151440927034
2015-10-27 17:26:32.707106,539,532.38822721394126
2015-10-27 17:26:32.722856,525,532.9749400186123
2015-10-27 17:26:32.722947,511,533.56165282328323
2015-10-27 17:26:32.723013,499,534.14836562795426
2015-10-27 17:26:32.738797,490,534.73507843262519
2015-10-27 17:26:32.738891,485,535.32179123729611
2015-10-27 17:26:32.738957,482,535.90850404196715
2015-10-27 17:26:32.756068,479,536.49521684663807
2015-10-27 17:26:32.756328,476,537.08192965130911
2015-10-27 17:26:32.756519,474,537.66864245598003
2015-10-27 17:26:32.770599,473,538.25535526065096
2015-10-27 17:26:32.770663,471,538.842068065322
2015-10-27 17:26:32.770708,471,539.42878086999292
2015-10-27 17:26:32.786935,471,540.01549367466396
2015-10-27 17:26:32.787024,471,540.60220647933488
2015-10-27 17:26:32.787090,472,541.18891928400592
2015-10-27 17:26:32.802809,474,541.77433799345135
2015-10-27 17:26:32.802899,477,542.3571685124457
2015-10-27 17:26:32.802963,480,542.93870493621466
2015-10-27 17:26:32.818826,483,543.51894726475803
2015-10-27 17:26:32.818917,485,544.0978954980759
2015-10-27 17:26:32.818981,487,544.6742555409428
2015-10-27 17:26:32.834762,490,545.2480273933586
2015-10-27 17:26:32.834856,494,545.81921105532342
2015-10-27 17:26:32.834922,496,546.39039471728825
2015-10-27 17:26:32.850667,496,546.96157837925307
2015-10-27 17:26:32.850762,497,547.53276204121789
2015-10-27 17:26:32.850829,497,548.10394570318272
2015-10-27 17:26:32.866690,500,548.67512936514754
2015-10-27 17:26:32.866867,501,549.24631302711236
2015-10-27 17:26:32.866940,502,549.81749668907719
2015-10-27 17:26:32.882620,502,550.38868035104201
2015-10-27 17:26:32.882695,501,550.95986401300684
2015-10-27 17:26:32.882740,503,551.53104767497189
2015-10-27 17:26:32.898741,502,552.10223133693671
2015-10-27 17:26:32.898821,501,552.67341499890154
2015-10-27 17:26:32.898869,502,553.24459866086636
2015-10-27 17:26:32.914729,503,553.81578232283118
2015-10-27 17:26:32.914880,502,554.38696598479612
2015-10-27 17:26:32.915051,501,554.95814964676106
2015-10-27 17:26:32.930580,498,555.52933330872588
2015-10-27 17:26:32.930687,497,556.10051697069082
2015-10-27 17:26:32.930727,497,556.67170063265564
2015-10-27 17:26:32.930762,498,557.24288429462047
2015-10-27 17:26:32.946746,498,557.8140679565854
2015-10-27 17:26:32.946895,499,558.36842838061852
2015-10-27 17:26:32.946966,498,559.01923868410995
2015-10-27 17:26:32.962822,499,559.67004898760126
2015-10-27 17:26:32.962954,499,560.32085929109269
2015-10-27 17:26:32.963039,498,560.971669594584
2015-10-27 17:26:32.978929,499,561.58610919936109
2015-10-27 17:26:32.979018,500,561.72634759711582
2015-10-27 17:26:32.979101,499,561.69528931170362
2015-10-27 17:26:32.994935,498,561.67976016899752
2015-10-27 17:26:32.995046,496,561.66423102629142
2015-10-27 17:26:32.995112,495,561.6487018835852
2015-10-27 17:26:33.010837,495,561.6331727408791
2015-10-27 17:26:33.010926,496,561.61764359817312
2015-10-27 17:26:33.010990,495,561.6021144554669
2015-10-27 17:26:33.027461,495,561.58658531276069
2015-10-27 17:26:33.027617,495,561.5710561700547
2015-10-27 17:26:33.027740,494,561.5555270273486
2015-10-27 17:26:33.042844,496,561.53999788464239
2015-10-27 17:26:33.042948,496,561.52446874193629
2015-10-27 17:26:33.043013,494,561.50893959923019
2015-10-27 17:26:33.058703,494,561.49341045652409
2015-10-27 17:26:33.058847,493,561.47788131381799
2015-10-27 17:26:33.058912,493,561.46235217111189
2015-10-27 17:26:33.074674,492,561.44682302840579
2015-10-27 17:26:33.074742,493,561.43129388569969
2015-10-27 17:26:33.074790,494,561.41576474299359
2015-10-27 17:26:33.090574,493,561.40023560028749
2015-10-27 17:26:33.090648,493,561.38470645758139
2015-10-27 17:26:33.090696,492,561.36917731487529
2015-10-27 17:26:33.106815,493,561.35364817216919
2015-10-27 17:26:33.106909,494,561.33811902946309
2015-10-27 17:26:33.106974,495,561.32258988675699
2015-10-27 17:26:33.122891,496,561.30706074405077
2015-10-27 17:26:33.123015,497,561.29153160134456
2015-10-27 17:26:33.123080,498,561.27600245863857
2015-10-27 17:26:33.138789,499,561.26047331593247
2015-10-27 17:26:33.138995,499,561.24494417322626
2015-10-27 17:26:33.139158,499,561.22941503052016
2015-10-27 17:26:33.154830,499,561.21388588781406
2015-10-27 17:26:33.154993,497,561.19835674510796
2015-10-27 17:26:33.155060,498,561.18282760240186
2015-10-27 17:26:33.170700,497,561.16729845969576
2015-10-27 17:26:33.170814,499,561.15176931698966
2015-10-27 17:26:33.170879,500,561.13624017428356
2015-10-27 17:26:33.170942,501,561.12071103157746
2015-10-27 17:26:33.186805,501,561.10518188887136
2015-10-27 17:26:33.186895,501,561.08965274616526
2015-10-27 17:26:33.186960,502,561.07412360345916
2015-10-27 17:26:33.202721,502,561.05859446075306
2015-10-27 17:26:33.202812,503,561.04306531804696
2015-10-27 17:26:33.202876,504,561.02753617534086
2015-10-27 17:26:33.218713,505,561.01200703263476
2015-10-27 17:26:33.218801,504,560.99647788992854
2015-10-27 17:26:33.218865,501,560.98094874722244
2015-10-27 17:26:33.234845,501,560.96541960451646
2015-10-27 17:26:33.234959,504,560.94989046181024
2015-10-27 17:26:33.235024,507,560.93436131910403
2015-10-27 17:26:33.250650,506,560.91883217639804
2015-10-27 17:26:33.250864,507,560.90330303369194
2015-10-27 17:26:33.251040,507,560.88777389098573
2015-10-27 17:26:33.266558,506,560.87224474827963
2015-10-27 17:26:33.266647,509,560.85671560557353
2015-10-27 17:26:33.266713,512,560.84118646286743
2015-10-27 17:26:33.282531,513,560.82565732016133
2015-10-27 17:26:33.282593,513,560.81012817745523
2015-10-27 17:26:33.282630,512,560.79459903474913
2015-10-27 17:26:33.298477,515,560.77906989204303
2015-10-27 17:26:33.298544,517,560.76354074933693
2015-10-27 17:26:33.298590,519,560.74801160663083
2015-10-27 17:26:33.314654,520,560.73248246392473
2015-10-27 17:26:33.314728,521,560.71695332121863
2015-10-27 17:26:33.314781,525,560.70271827373801
2015-10-27 17:26:33.330548,526,560.69107141670838
2015-10-27 17:26:33.330631,527,560.68071865490435
2015-10-27 17:26:33.330686,528,560.6716599883257
2015-10-27 17:26:33.346477,523,560.66389541697276
2015-10-27 17:26:33.346579,514,560.65871903607069
2015-10-27 17:26:33.346640,509,560.6561308456196
2015-10-27 17:26:33.362462,507,560.6561308456196
2015-10-27 17:26:33.362529,508,560.6561308456196
2015-10-27 17:26:33.362588,509,560.6561308456196
2015-10-27 17:26:33.378479,508,560.6561308456196
2015-10-27 17:26:33.378563,508,560.6561308456196
2015-10-27 17:26:33.378613,510,560.6561308456196
2015-10-27 17:26:33.394519,510,560.6561308456196
2015-10-27 17:26:33.394628,509,560.6561308456196
2015-10-27 17:26:33.394695,509,560.6561308456196
2015-10-27 17:26:33.410437,509,560.6561308456196
2015-10-27 17:26:33.410519,508,560.6561308456196
2015-10-27 17:26:33.410568,508,560.6561308456196
2015-10-27 17:26:33.410614,509,560.6561308456196
2015-10-27 17:26:33.426513,508,560.6561308456196
2015-10-27 17:26:33.426630,508,560.6561308456196
2015-10-27 17:26:33.426753,514,560.6561308456196
2015-10-27 17:26:33.442551,528,560.6561308456196
2015-10-27 17:26:33.442609,567,560.6561308456196
2015-10-27 17:26:33.442648,660,560.6561308456196
2015-10-27 17:26:33.458726,747,560.6561308456196
2015-10-27 17:26:33.458875,752,560.6561308456196
2015-10-27 17:26:33.458981,661,560.6561308456196
2015-10-27 17:26:33.474567,494,560.70435244996315
2015-10-27 17:26:33.474642,363,561.50303636093327
2015-10-27 17:26:33.474682,238,561.99745363662237
2015-10-27 17:26:33.490685,260,561.51818718544087
2015-10-27 17:26:33.490886,379,561.15797749500621
2015-10-27 17:26:33.491043,461,560.79776780457155
2015-10-27 17:26:33.506495,497,560.43755811413689
2015-10-27 17:26:33.506623,516,560.07734842370223
2015-10-27 17:26:33.506718,528,559.71713873326757
2015-10-27 17:26:33.522545,531,559.35692904283292
2015-10-27 17:26:33.522715,533,558.99671935239826
2015-10-27 17:26:33.522855,537,558.6365096619636
2015-10-27 17:26:33.538832,542,558.27629997152906
2015-10-27 17:26:33.538958,546,557.9160902810944
2015-10-27 17:26:33.539047,549,557.55588059065974
2015-10-27 17:26:33.554782,550,557.1956709002252
2015-10-27 17:26:33.554931,551,556.83546120979054
2015-10-27 17:26:33.555164,554,556.47525151935588
2015-10-27 17:26:33.570576,555,556.11504182892122
2015-10-27 17:26:33.570668,557,555.75483213848656
2015-10-27 17:26:33.570733,559,555.3946224480519
2015-10-27 17:26:33.586673,560,555.03441275761725
2015-10-27 17:26:33.586801,563,554.67420306718259
2015-10-27 17:26:33.586866,565,554.31399337674793
2015-10-27 17:26:33.602425,568,553.95378368631327
2015-10-27 17:26:33.602521,572,553.59357399587861
2015-10-27 17:26:33.602600,574,553.23336430544396
2015-10-27 17:26:33.618379,578,552.8731546150093
2015-10-27 17:26:33.618450,582,552.51294492457464
2015-10-27 17:26:33.618498,587,552.15273523413987
2015-10-27 17:26:33.634559,594,551.79252554370521
2015-10-27 17:26:33.634670,601,551.43231585327044
2015-10-27 17:26:33.634736,606,551.07210616283589
2015-10-27 17:26:33.650562,612,550.71189647240112
2015-10-27 17:26:33.650674,621,550.35168678196646
2015-10-27 17:26:33.650741,631,549.99147709153181
2015-10-27 17:26:33.666419,638,549.63126740109715
2015-10-27 17:26:33.666529,647,549.27105771066249
2015-10-27 17:26:33.666596,656,548.91084802022772
2015-10-27 17:26:33.666658,666,548.55063832979317
2015-10-27 17:26:33.682569,674,548.1904286393584
2015-10-27 17:26:33.682684,681,547.83021894892374
2015-10-27 17:26:33.682753,687,547.47000925848897
2015-10-27 17:26:33.698635,687,547.10979956805431
2015-10-27 17:26:33.698724,684,546.74958987761966
2015-10-27 17:26:33.698789,681,546.389380187185
2015-10-27 17:26:33.714444,679,546.02917049675034
2015-10-27 17:26:33.714533,673,545.66896080631568
2015-10-27 17:26:33.714597,662,545.30875111588102
2015-10-27 17:26:33.730562,648,544.94854142544625
2015-10-27 17:26:33.730652,633,544.58833173501171
2015-10-27 17:26:33.730717,618,544.22812204457693
2015-10-27 17:26:33.746686,599,543.86791235414228
2015-10-27 17:26:33.746777,578,543.50770266370751
2015-10-27 17:26:33.746842,558,543.14749297327285
2015-10-27 17:26:33.762403,539,542.78728328283819
2015-10-27 17:26:33.762492,520,542.42707359240353
2015-10-27 17:26:33.762558,505,542.06686390196887
2015-10-27 17:26:33.778577,492,541.70665421153421
2015-10-27 17:26:33.778669,479,541.34644452109956
2015-10-27 17:26:33.778734,469,540.98623483066478
2015-10-27 17:26:33.794615,464,540.62602514023013
2015-10-27 17:26:33.794706,457,540.26581544979535
2015-10-27 17:26:33.794770,450,539.90560575936081
2015-10-27 17:26:33.810372,449,539.54539606892615
2015-10-27 17:26:33.810462,449,539.18518637849138
2015-10-27 17:26:33.810527,445,538.82497668805672
2015-10-27 17:26:33.826720,445,538.46476699762218
2015-10-27 17:26:33.826839,445,538.10455730718741
2015-10-27 17:26:33.826904,444,537.74434761675275
2015-10-27 17:26:33.842515,445,537.38413792631809
2015-10-27 17:26:33.842607,445,537.02392823588355
2015-10-27 17:26:33.842673,447,536.66371854544877
2015-10-27 17:26:33.858478,450,536.30350885501412
2015-10-27 17:26:33.858573,452,535.94329916457946
2015-10-27 17:26:33.858638,456,535.58308947414491
2015-10-27 17:26:33.874372,458,535.22287978371025
2015-10-27 17:26:33.874571,459,534.86267009327548
2015-10-27 17:26:33.874666,463,534.50246040284082
2015-10-27 17:26:33.890523,464,534.14225071240617
2015-10-27 17:26:33.890633,464,533.78204102197151
2015-10-27 17:26:33.890699,464,533.42183133153685
2015-10-27 17:26:33.906519,465,533.06162164110219
2015-10-27 17:26:33.906628,466,532.70141195066753
2015-10-27 17:26:33.906693,467,532.34120226023288
2015-10-27 17:26:33.906756,471,531.98099256979822
2015-10-27 17:26:33.922530,474,531.62078287936356
2015-10-27 17:26:33.922619,473,531.2605731889289
2015-10-27 17:26:33.922683,473,530.90036349849424
2015-10-27 17:26:33.938511,472,530.54015380805959
2015-10-27 17:26:33.938602,471,530.17994411762493
2015-10-27 17:26:33.938668,472,529.81973442719027
2015-10-27 17:26:33.954425,472,529.45952473675561
2015-10-27 17:26:33.954534,470,529.09931504632095
2015-10-27 17:26:33.954602,470,528.7391053558863
2015-10-27 17:26:33.970437,471,528.37889566545164
2015-10-27 17:26:33.970546,473,528.01868597501698
2015-10-27 17:26:33.970614,473,527.65847628458232
2015-10-27 17:26:33.986437,471,527.29826659414766
2015-10-27 17:26:33.986544,471,526.938056903713
2015-10-27 17:26:33.986633,472,526.52962560893479
2015-10-27 17:26:34.002432,471,525.37073200753002
2015-10-27 17:26:34.002523,470,524.51610504140638
2015-10-27 17:26:34.002589,470,524.63516180215311
2015-10-27 17:26:34.018455,470,524.63516180215311
2015-10-27 17:26:34.018565,471,524.63516180215311
2015-10-27 17:26:34.018651,473,524.63516180215311
2015-10-27 17:26:34.034434,475,524.63516180215311
2015-10-27 17:26:34.034591,474,524.63516180215311
2015-10-27 17:26:34.034663,473,524.63516180215311
2015-10-27 17:26:34.050652,476,524.63516180215311
2015-10-27 17:26:34.050743,476,524.63516180215311
2015-10-27 17:26:34.050898,475,524.63516180215311
2015-10-27 17:26:34.066442,477,524.63516180215311
2015-10-27 17:26:34.066536,476,524.63516180215311
2015-10-27 17:26:34.066612,476,524.63516180215311
2015-10-27 17:26:34.082609,477,524.63516180215311
2015-10-27 17:26:34.082790,478,524.63516180215311
2015-10-27 17:26:34.082866,477,524.63516180215311
2015-10-27 17:26:34.098343,477,524.63516180215311
2015-10-27 17:26:34.098451,477,524.63516180215311
2015-10-27 17:26:34.098531,477,524.63516180215311
2015-10-27 17:26:34.114460,478,524.63516180215311
2015-10-27 17:26:34.114580,478,524.63516180215311
2015-10-27 17:26:34.114647,478,524.63516180215311
2015-10-27 17:26:34.130281,478,524.63516180215311
2015-10-27 17:26:34.130358,479,524.63516180215311
2015-10-27 17:26:34.130404,479,524.63516180215311
2015-10-27 17:26:34.146563,480,524.63516180215311
2015-10-27 17:26:34.146763,482,524.63516180215311
2015-10-27 17:26:34.146887,482,524.63516180215311
2015-10-27 17:26:34.146963,482,524.63516180215311
2015-10-27 17:26:34.162642,480,524.63516180215311
2015-10-27 17:26:34.162732,480,524.63516180215311
2015-10-27 17:26:34.162797,481,524.63516180215311
2015-10-27 17:26:34.178614,482,524.63516180215311
2015-10-27 17:26:34.178704,482,524.63516180215311
2015-10-27 17:26:34.178769,483,524.63516180215311
2015-10-27 17:26:34.194576,485,524.63516180215311
2015-10-27 17:26:34.194683,486,524.63516180215311
2015-10-27 17:26:34.194765,487,524.63516180215311
2015-10-27 17:26:34.210712,488,524.63516180215311
2015-10-27 17:26:34.210804,485,524.63516180215311
2015-10-27 17:26:34.210869,483,524.63516180215311
2015-10-27 17:26:34.226612,486,524.63516180215311
2015-10-27 17:26:34.226725,488,524.63516180215311
2015-10-27 17:26:34.226790,489,524.63516180215311
2015-10-27 17:26:34.242489,489,524.63516180215311
2015-10-27 17:26:34.242579,491,524.63516180215311
2015-10-27 17:26:34.242645,489,524.63516180215311
2015-10-27 17:26:34.258598,489,524.63516180215311
2015-10-27 17:26:34.258719,490,524.63516180215311
2015-10-27 17:26:34.258784,491,524.63516180215311
2015-10-27 17:26:34.274328,492,524.63516180215311
2015-10-27 17:26:34.274501,491,524.63516180215311
2015-10-27 17:26:34.274585,491,524.63516180215311
2015-10-27 17:26:34.290325,494,524.63516180215311
2015-10-27 17:26:34.290427,495,524.63516180215311
2015-10-27 17:26:34.290492,495,524.63516180215311
2015-10-27 17:26:34.306458,496,524.63516180215311
2015-10-27 17:26:34.306551,493,524.63516180215311
2015-10-27 17:26:34.306616,493,524.63516180215311
2015-10-27 17:26:34.322289,498,524.63516180215311
2015-10-27 17:26:34.322357,502,524.63516180215311
2015-10-27 17:26:34.322402,504,524.63516180215311
2015-10-27 17:26:34.338276,505,524.63516180215311
2015-10-27 17:26:34.338369,507,524.63516180215311
2015-10-27 17:26:34.338436,510,524.63516180215311
2015-10-27 17:26:34.354207,513,524.63516180215311
2015-10-27 17:26:34.354283,516,524.63516180215311
2015-10-27 17:26:34.354330,512,524.63516180215311
2015-10-27 17:26:34.370250,502,524.63516180215311
2015-10-27 17:26:34.370361,493,524.63516180215311
2015-10-27 17:26:34.370428,492,524.63516180215311
2015-10-27 17:26:34.386276,492,524.63516180215311
2015-10-27 17:26:34.386453,492,524.63516180215311
2015-10-27 17:26:34.386573,492,524.63516180215311
2015-10-27 17:26:34.386628,494,524.63516180215311
2015-10-27 17:26:34.402257,493,524.63516180215311
2015-10-27 17:26:34.402326,490,524.63516180215311
2015-10-27 17:26:34.402364,490,524.63516180215311
2015-10-27 17:26:34.418361,489,524.63516180215311
2015-10-27 17:26:34.418452,491,524.63516180215311
2015-10-27 17:26:34.418519,494,524.63516180215311
2015-10-27 17:26:34.434646,495,524.63516180215311
2015-10-27 17:26:34.434737,496,524.63516180215311
2015-10-27 17:26:34.434897,497,524.63516180215311
2015-10-27 17:26:34.450409,498,524.63516180215311
2015-10-27 17:26:34.450706,502,524.63516180215311
2015-10-27 17:26:34.450854,511,524.63516180215311
2015-10-27 17:26:34.466230,543,524.63516180215311
2015-10-27 17:26:34.466322,629,524.63516180215311
2015-10-27 17:26:34.466436,732,524.63516180215311
2015-10-27 17:26:34.482432,757,524.63516180215311
2015-10-27 17:26:34.482521,685,524.63516180215311
2015-10-27 17:26:34.482585,513,524.63516180215311
2015-10-27 17:26:34.498509,368,524.64939684963383
2015-10-27 17:26:34.498631,226,524.19724505275917
2015-10-27 17:26:34.498697,208,523.64175813232828
2015-10-27 17:26:34.514553,326,523.08627121189738
2015-10-27 17:26:34.514643,425,522.53078429146649
2015-10-27 17:26:34.514708,473,521.97529737103559
2015-10-27 17:26:34.530287,498,521.38371181669027
2015-10-27 17:26:34.530433,514,520.88570921578116
2015-10-27 17:26:34.530506,519,520.38770661487217
2015-10-27 17:26:34.546292,522,519.88970401396318
2015-10-27 17:26:34.546383,524,519.39170141305408
2015-10-27 17:26:34.546468,529,518.8936988121452
2015-10-27 17:26:34.562179,532,518.39569621123621
2015-10-27 17:26:34.562235,531,517.89769361032722
2015-10-27 17:26:34.562273,533,517.39969100941835
2015-10-27 17:26:34.578219,537,516.90168840850947
2015-10-27 17:26:34.578285,541,516.40368580760037
2015-10-27 17:26:34.578330,544,515.90568320669126
2015-10-27 17:26:34.594166,545,515.40768060578228
2015-10-27 17:26:34.594220,545,514.90967800487329
2015-10-27 17:26:34.594257,546,514.41167540396418
2015-10-27 17:26:34.610211,549,513.91367280305519
2015-10-27 17:26:34.610342,552,513.4156702021462
2015-10-27 17:26:34.610465,555,512.9176676012371
2015-10-27 17:26:34.626207,558,512.41966500032811
2015-10-27 17:26:34.626387,564,511.92166239941912
2015-10-27 17:26:34.626493,569,511.42365979851007
2015-10-27 17:26:34.642490,570,510.92565719760108
2015-10-27 17:26:34.642650,574,510.42765459669204
2015-10-27 17:26:34.642718,581,509.92965199578299
2015-10-27 17:26:34.642781,589,509.43164939487394
2015-10-27 17:26:34.658330,594,508.9336467939649
2015-10-27 17:26:34.658418,601,508.43564419305591
2015-10-27 17:26:34.658483,607,507.93764159214686
2015-10-27 17:26:34.674175,617,507.43963899123781
2015-10-27 17:26:34.674239,627,506.94163639032882
2015-10-27 17:26:34.674283,638,506.44363378941978
2015-10-27 17:26:34.690214,649,505.94563118851079
2015-10-27 17:26:34.690305,657,505.44762858760174
2015-10-27 17:26:34.690376,665,504.94962598669275
2015-10-27 17:26:34.706241,671,504.45162338578371
2015-10-27 17:26:34.706329,677,503.95362078487466
2015-10-27 17:26:34.706452,682,503.45561818396567
2015-10-27 17:26:34.722351,681,502.95761558305657
2015-10-27 17:26:34.722441,679,502.45961298214758
2015-10-27 17:26:34.722505,676,501.96161038123853
2015-10-27 17:26:34.738332,670,501.46360778032948
2015-10-27 17:26:34.738432,663,500.96560517942049
2015-10-27 17:26:34.738507,651,500.46760257851145
2015-10-27 17:26:34.754317,636,499.96959997760246
2015-10-27 17:26:34.754407,617,499.47159737669341
2015-10-27 17:26:34.754473,598,498.97359477578442
2015-10-27 17:26:34.770311,577,498.47559217487537
2015-10-27 17:26:34.770402,554,497.97758957396633
2015-10-27 17:26:34.770469,535,497.47958697305734
2015-10-27 17:26:34.786176,516,496.98158437214823
2015-10-27 17:26:34.786296,500,496.48358177123924
2015-10-27 17:26:34.786517,485,495.9855791703302
2015-10-27 17:26:34.802201,473,495.48757656942109
2015-10-27 17:26:34.802368,464,494.9895739685121
2015-10-27 17:26:34.802593,458,494.49157136760306
2015-10-27 17:26:34.818146,453,493.99356876669401
2015-10-27 17:26:34.818307,447,493.49556616578496
2015-10-27 17:26:34.818377,440,492.99756356487592
2015-10-27 17:26:34.834325,436,492.49956096396687
2015-10-27 17:26:34.834438,436,492.00155836305782
2015-10-27 17:26:34.834505,435,491.50355576214878
2015-10-27 17:26:34.850260,437,491.00555316123979
2015-10-27 17:26:34.850368,438,490.50755056033069
2015-10-27 17:26:34.850434,437,490.00954795942164
2015-10-27 17:26:34.866093,439,489.51154535851265
2015-10-27 17:26:34.866202,444,489.01354275760355
2015-10-27 17:26:34.866269,447,488.5155401566945
2015-10-27 17:26:34.882274,450,488.01753755578551
2015-10-27 17:26:34.882385,453,487.51953495487641
2015-10-27 17:26:34.882450,454,487.02153235396736
2015-10-27 17:26:34.882512,454,486.52352975305837
2015-10-27 17:26:34.898438,456,486.02552715214932
2015-10-27 17:26:34.898547,458,485.52752455124028
2015-10-27 17:26:34.898629,459,485.02952195033123
2015-10-27 17:26:34.914237,461,484.53151934942213
2015-10-27 17:26:34.914371,462,484.03351674851308
2015-10-27 17:26:34.914484,463,483.53551414760409
2015-10-27 17:26:34.930443,466,483.03751154669504
2015-10-27 17:26:34.930532,468,482.539508945786
2015-10-27 17:26:34.930597,469,482.04150634487695
2015-10-27 17:26:34.946435,468,481.54350374396796
2015-10-27 17:26:34.946526,466,481.04550114305891
2015-10-27 17:26:34.946609,467,480.54749854214992
2015-10-27 17:26:34.962270,468,480.04949594124088
2015-10-27 17:26:34.962357,468,479.55149334033183
2015-10-27 17:26:34.962422,467,479.05349073942278
2015-10-27 17:26:34.978123,465,478.55548813851379
2015-10-27 17:26:34.978233,465,478.05748553760475
2015-10-27 17:26:34.978307,468,477.55948293669576
2015-10-27 17:26:34.994396,467,477.06148033578671
2015-10-27 17:26:34.994497,466,476.56347773487767
2015-10-27 17:26:34.994563,464,476.06547513396862
2015-10-27 17:26:35.010342,463,475.56747253305963
2015-10-27 17:26:35.010434,463,475.06946993215058
2015-10-27 17:26:35.010498,463,474.55723228376092
2015-10-27 17:26:35.026237,465,474.51138147972648
2015-10-27 17:26:35.026327,467,474.56886579924827
2015-10-27 17:26:35.026393,464,474.62635011877018
2015-10-27 17:26:35.042231,464,474.68383443829197
2015-10-27 17:26:35.042326,465,474.74131875781381
2015-10-27 17:26:35.042391,465,474.83490171125004
2015-10-27 17:26:35.058108,464,474.83490171125004
2015-10-27 17:26:35.058201,464,474.83490171125004
2015-10-27 17:26:35.058266,464,474.83490171125004
2015-10-27 17:26:35.074138,464,474.83490171125004
2015-10-27 17:26:35.074232,467,474.83490171125004
2015-10-27 17:26:35.074299,468,474.83490171125004
2015-10-27 17:26:35.090171,466,474.83490171125004
2015-10-27 17:26:35.090280,466,474.83490171125004
2015-10-27 17:26:35.090345,468,474.83490171125004
2015-10-27 17:26:35.106078,471,474.83490171125004
2015-10-27 17:26:35.106255,472,474.83490171125004
2015-10-27 17:26:35.106389,471,474.83490171125004
2015-10-27 17:26:35.122059,469,474.83490171125004
2015-10-27 17:26:35.122234,468,474.83490171125004
2015-10-27 17:26:35.122306,470,474.83490171125004
2015-10-27 17:26:35.122370,472,474.83490171125004
2015-10-27 17:26:35.138254,474,474.83490171125004
2015-10-27 17:26:35.138342,475,474.83490171125004
2015-10-27 17:26:35.138406,475,474.83490171125004
2015-10-27 17:26:35.154090,475,474.83490171125004
2015-10-27 17:26:35.154179,474,474.83490171125004
2015-10-27 17:26:35.154243,475,474.83490171125004
2015-10-27 17:26:35.170031,477,474.83490171125004
2015-10-27 17:26:35.170120,477,474.83490171125004
2015-10-27 17:26:35.170186,476,474.83490171125004
2015-10-27 17:26:35.186301,475,474.83490171125004
2015-10-27 17:26:35.186392,475,474.83490171125004
2015-10-27 17:26:35.186457,475,474.83490171125004
2015-10-27 17:26:35.202219,476,474.83490171125004
2015-10-27 17:26:35.202309,477,474.83490171125004
2015-10-27 17:26:35.202374,478,474.83490171125004
2015-10-27 17:26:35.218145,478,474.83490171125004
2015-10-27 17:26:35.218239,479,474.83490171125004
2015-10-27 17:26:35.218362,478,474.83490171125004
2015-10-27 17:26:35.234216,479,474.83490171125004
2015-10-27 17:26:35.234412,481,474.83490171125004
2015-10-27 17:26:35.234521,483,474.83490171125004
2015-10-27 17:26:35.250031,483,474.83490171125004
2015-10-27 17:26:35.250122,482,474.83490171125004
2015-10-27 17:26:35.250187,484,474.83490171125004
2015-10-27 17:26:35.266272,485,474.83490171125004
2015-10-27 17:26:35.266392,486,474.83490171125004
2015-10-27 17:26:35.266457,487,474.83490171125004
2015-10-27 17:26:35.281957,489,474.83490171125004
2015-10-27 17:26:35.282032,492,474.83490171125004
2015-10-27 17:26:35.282082,493,474.83490171125004
2015-10-27 17:26:35.298014,493,474.83490171125004
2015-10-27 17:26:35.298079,492,474.83490171125004
2015-10-27 17:26:35.298124,491,474.83490171125004
2015-10-27 17:26:35.314339,495,474.83490171125004
2015-10-27 17:26:35.314431,497,474.83490171125004
2015-10-27 17:26:35.314500,501,474.83490171125004
2015-10-27 17:26:35.330033,503,474.83490171125004
2015-10-27 17:26:35.330145,502,474.83490171125004
2015-10-27 17:26:35.330200,506,474.83490171125004
2015-10-27 17:26:35.346276,511,474.83490171125004
2015-10-27 17:26:35.346392,514,474.83490171125004
2015-10-27 17:26:35.346459,511,474.83490171125004
2015-10-27 17:26:35.362179,502,474.83490171125004
2015-10-27 17:26:35.362292,494,474.83490171125004
2015-10-27 17:26:35.362378,492,474.83490171125004
2015-10-27 17:26:35.362443,492,474.83490171125004
2015-10-27 17:26:35.378021,493,474.83490171125004
2015-10-27 17:26:35.378123,492,474.83490171125004
2015-10-27 17:26:35.378189,494,474.83490171125004
2015-10-27 17:26:35.394065,495,474.83490171125004
2015-10-27 17:26:35.394214,495,474.83490171125004
2015-10-27 17:26:35.394400,495,474.83490171125004
2015-10-27 17:26:35.410134,494,474.83490171125004
2015-10-27 17:26:35.410221,495,474.83490171125004
2015-10-27 17:26:35.410286,497,474.83490171125004
2015-10-27 17:26:35.426136,498,474.83490171125004
2015-10-27 17:26:35.426226,497,474.83490171125004
2015-10-27 17:26:35.426290,493,474.83490171125004
2015-10-27 17:26:35.442059,493,474.83490171125004
2015-10-27 17:26:35.442150,503,474.83490171125004
2015-10-27 17:26:35.442215,520,474.83490171125004
2015-10-27 17:26:35.458010,569,474.83490171125004
2015-10-27 17:26:35.458100,676,474.83490171125004
2015-10-27 17:26:35.458166,764,474.83490171125004
2015-10-27 17:26:35.474007,762,474.83490171125004
2015-10-27 17:26:35.474098,648,474.83490171125004
2015-10-27 17:26:35.474165,464,474.83490171125004
2015-10-27 17:26:35.490222,317,474.86908076259766
2015-10-27 17:26:35.490314,186,474.4541109754922
2015-10-27 17:26:35.490378,234,474.146551092104
2015-10-27 17:26:35.505973,368,473.83899120871581
2015-10-27 17:26:35.506064,449,473.53143132532762
2015-10-27 17:26:35.506163,484,473.22387144193942
2015-10-27 17:26:35.522333,508,472.91631155855117
2015-10-27 17:26:35.522429,519,472.60875167516298
2015-10-27 17:26:35.522494,521,472.30119179177478
2015-10-27 17:26:35.538215,523,471.99363190838659
2015-10-27 17:26:35.538310,527,471.6860720249984
2015-10-27 17:26:35.538375,534,471.2890337473363
2015-10-27 17:26:35.554082,537,471.28388226209108
2015-10-27 17:26:35.554174,538,471.22437877737445
2015-10-27 17:26:35.554240,538,471.16487529265788
2015-10-27 17:26:35.570084,540,471.10537180794131
2015-10-27 17:26:35.570193,543,471.04586832322468
2015-10-27 17:26:35.570259,546,470.98636483850811
2015-10-27 17:26:35.586113,548,470.92686135379154
2015-10-27 17:26:35.586295,552,470.86735786907497
2015-10-27 17:26:35.586363,553,470.80785438435834
2015-10-27 17:26:35.602133,557,470.74835089964176
2015-10-27 17:26:35.602309,559,470.68884741492519
2015-10-27 17:26:35.602375,562,470.62934393020856
2015-10-27 17:26:35.602437,566,470.56984044549199
2015-10-27 17:26:35.618102,571,470.51033696077542
2015-10-27 17:26:35.618192,574,470.45083347605885
2015-10-27 17:26:35.618256,578,470.39132999134222
2015-10-27 17:26:35.634114,583,470.33182650662565
2015-10-27 17:26:35.634202,590,470.27232302190907
2015-10-27 17:26:35.634268,598,470.2128195371925
2015-10-27 17:26:35.650174,604,470.15331605247587
2015-10-27 17:26:35.650264,608,470.0938125677593
2015-10-27 17:26:35.650329,615,470.03430908304273
2015-10-27 17:26:35.665924,624,469.9748055983261
2015-10-27 17:26:35.666014,634,469.91530211360953
2015-10-27 17:26:35.666079,641,469.85579862889296
2015-10-27 17:26:35.682074,650,469.79629514417638
2015-10-27 17:26:35.682163,659,469.73679165945975
2015-10-27 17:26:35.682227,669,469.67728817474318
2015-10-27 17:26:35.698214,677,469.61778469002661
2015-10-27 17:26:35.698302,683,469.55828120530998
2015-10-27 17:26:35.698387,684,469.49877772059341
2015-10-27 17:26:35.714255,682,469.43927423587684
2015-10-27 17:26:35.714390,680,469.37977075116027
2015-10-27 17:26:35.714482,675,469.32026726644364
