timestamp,raw_value,wavelet_value
datetime,int,float
T,,
2015-10-24 13:41:19.962186,477,619.56802329819072
2015-10-24 13:41:19.962460,479,484.81786954185378
2015-10-24 13:41:19.962632,478,485.27374915907842
2015-10-24 13:41:19.977755,479,485.72962877630306
2015-10-24 13:41:19.977926,479,486.1855083935277
2015-10-24 13:41:19.978029,478,486.64138801075234
2015-10-24 13:41:19.993733,479,487.09726762797698
2015-10-24 13:41:19.993876,480,487.55314724520161
2015-10-24 13:41:19.993974,483,488.00902686242625
2015-10-24 13:41:20.009589,496,488.46490647965089
2015-10-24 13:41:20.009694,500,488.92078609687553
2015-10-24 13:41:20.009759,510,489.37666571410017
2015-10-24 13:41:20.009806,557,489.83254533132481
2015-10-24 13:41:20.025602,629,490.28842494854939
2015-10-24 13:41:20.025656,714,490.74430456577403
2015-10-24 13:41:20.025703,781,491.20018418299867
2015-10-24 13:41:20.041635,780,491.65606380022331
2015-10-24 13:41:20.041707,742,492.11194341744795
2015-10-24 13:41:20.041753,620,492.56782303467259
2015-10-24 13:41:20.058071,434,493.04052588982881
2015-10-24 13:41:20.058245,357,493.295065898129
2015-10-24 13:41:20.058400,374,493.49581137809906
2015-10-24 13:41:20.074051,407,493.69655685806913
2015-10-24 13:41:20.074229,446,493.8973023380392
2015-10-24 13:41:20.074384,475,494.09804781800926
2015-10-24 13:41:20.090123,485,494.29879329797933
2015-10-24 13:41:20.090307,486,494.4995387779494
2015-10-24 13:41:20.090492,485,494.70028425791946
2015-10-24 13:41:20.105997,486,494.90102973788953
2015-10-24 13:41:20.106177,489,495.1017752178596
2015-10-24 13:41:20.106329,493,495.30252069782966
2015-10-24 13:41:20.121998,496,495.50326617779973
2015-10-24 13:41:20.122181,497,495.7040116577698
2015-10-24 13:41:20.122338,501,495.90475713773986
2015-10-24 13:41:20.137997,507,496.10550261770993
2015-10-24 13:41:20.138176,512,496.30624809768
2015-10-24 13:41:20.138329,514,496.50699357764995
2015-10-24 13:41:20.154003,518,496.70773905762007
2015-10-24 13:41:20.154179,521,496.90848453759008
2015-10-24 13:41:20.154331,523,497.10923001756009
2015-10-24 13:41:20.169934,527,497.3099754975301
2015-10-24 13:41:20.170117,532,497.51072097750011
2015-10-24 13:41:20.170269,536,497.71146645747024
2015-10-24 13:41:20.185831,541,497.91221193744025
2015-10-24 13:41:20.186012,547,498.11295741741026
2015-10-24 13:41:20.186167,555,498.31370289738027
2015-10-24 13:41:20.202009,561,498.51444837735028
2015-10-24 13:41:20.202199,568,498.71519385732029
2015-10-24 13:41:20.202351,576,498.91593933729041
2015-10-24 13:41:20.217734,587,499.11668481726042
2015-10-24 13:41:20.217934,591,499.31743029723043
2015-10-24 13:41:20.218089,592,499.51817577720044
2015-10-24 13:41:20.233911,595,499.71892125717045
2015-10-24 13:41:20.234177,598,499.91966673714057
2015-10-24 13:41:20.234336,597,500.12041221711058
2015-10-24 13:41:20.249830,592,500.32115769708059
2015-10-24 13:41:20.250081,587,500.52190317705072
2015-10-24 13:41:20.250238,579,500.72264865702073
2015-10-24 13:41:20.250385,570,500.92339413699085
2015-10-24 13:41:20.265900,559,501.12413961696086
2015-10-24 13:41:20.266076,545,501.32488509693098
2015-10-24 13:41:20.266229,528,501.52563057690099
2015-10-24 13:41:20.281983,510,501.72637605687112
2015-10-24 13:41:20.282160,492,501.92712153684113
2015-10-24 13:41:20.282317,480,502.12786701681125
2015-10-24 13:41:20.297822,469,502.32861249678126
2015-10-24 13:41:20.297997,458,502.52935797675127
2015-10-24 13:41:20.298149,452,502.73010345672139
2015-10-24 13:41:20.313948,447,502.9308489366914
2015-10-24 13:41:20.314122,442,503.13159441666153
2015-10-24 13:41:20.314275,436,503.33233989663154
2015-10-24 13:41:20.329915,433,503.53308537660166
2015-10-24 13:41:20.330097,432,503.73383085657167
2015-10-24 13:41:20.330250,431,503.9345763365418
2015-10-24 13:41:20.346085,431,504.13532181651181
2015-10-24 13:41:20.346344,433,504.33606729648193
2015-10-24 13:41:20.346511,434,504.53681277645194
2015-10-24 13:41:20.361970,431,504.73755825642206
2015-10-24 13:41:20.362151,430,504.93830373639207
2015-10-24 13:41:20.362306,432,505.1390492163622
2015-10-24 13:41:20.378063,437,505.33979469633221
2015-10-24 13:41:20.378329,439,505.54054017630233
2015-10-24 13:41:20.378492,441,505.74128565627234
2015-10-24 13:41:20.393879,444,505.94203113624246
2015-10-24 13:41:20.394057,447,506.14277661621247
2015-10-24 13:41:20.394211,450,506.3435220961826
2015-10-24 13:41:20.409987,452,506.52356205254443
2015-10-24 13:41:20.410177,456,506.75540893846971
2015-10-24 13:41:20.410332,459,506.96396211033573
2015-10-24 13:41:20.425822,460,507.17251528220186
2015-10-24 13:41:20.426001,461,507.38106845406787
2015-10-24 13:41:20.426156,462,507.589621625934
2015-10-24 13:41:20.441820,463,507.79817479780013
2015-10-24 13:41:20.442002,463,508.00672796966614
2015-10-24 13:41:20.442155,467,508.21528114153227
2015-10-24 13:41:20.457820,470,508.42383431339829
2015-10-24 13:41:20.458005,467,508.6323874852643
2015-10-24 13:41:20.458158,465,508.84094065713043
2015-10-24 13:41:20.473727,465,509.04949382899645
2015-10-24 13:41:20.473998,465,509.25804700086258
2015-10-24 13:41:20.474155,464,509.46660017272859
2015-10-24 13:41:20.489670,464,509.21927372737002
2015-10-24 13:41:20.489921,465,508.97194728201157
2015-10-24 13:41:20.490079,465,508.724620836653
2015-10-24 13:41:20.505573,462,508.47729439129444
2015-10-24 13:41:20.505776,461,508.22996794593587
2015-10-24 13:41:20.505931,462,507.9826415005773
2015-10-24 13:41:20.506083,464,507.73531505521885
2015-10-24 13:41:20.521818,463,507.48798860986028
2015-10-24 13:41:20.522088,463,507.24066216450171
2015-10-24 13:41:20.522242,464,506.99333571914315
2015-10-24 13:41:20.537816,464,506.74600927378469
2015-10-24 13:41:20.537992,464,506.49868282842613
2015-10-24 13:41:20.538145,465,506.25135638306756
2015-10-24 13:41:20.553707,468,506.00402993770899
2015-10-24 13:41:20.553900,471,505.75670349235043
2015-10-24 13:41:20.554055,470,505.50937704699197
2015-10-24 13:41:20.569787,472,505.2620506016334
2015-10-24 13:41:20.569962,475,505.01472415627484
2015-10-24 13:41:20.570115,475,504.75057447298468
2015-10-24 13:41:20.585785,474,504.70458763655051
2015-10-24 13:41:20.585962,478,504.71239532844652
2015-10-24 13:41:20.586113,480,504.72020302034264
2015-10-24 13:41:20.601642,478,504.72801071223864
2015-10-24 13:41:20.601819,477,504.73581840413465
2015-10-24 13:41:20.601974,480,504.74362609603065
2015-10-24 13:41:20.617794,484,504.75143378792666
2015-10-24 13:41:20.617974,486,504.75924147982266
2015-10-24 13:41:20.618127,489,504.76704917171867
2015-10-24 13:41:20.633591,491,504.77485686361467
2015-10-24 13:41:20.633772,485,504.78266455551068
2015-10-24 13:41:20.633924,476,504.79047224740668
2015-10-24 13:41:20.649744,468,504.79827993930269
2015-10-24 13:41:20.649928,465,504.80608763119869
2015-10-24 13:41:20.650084,464,504.8138953230947
2015-10-24 13:41:20.665709,463,504.82170301499082
2015-10-24 13:41:20.665895,465,504.82951070688682
2015-10-24 13:41:20.666049,468,504.83731839878283
2015-10-24 13:41:20.681675,468,504.84512609067883
2015-10-24 13:41:20.681886,467,504.85293378257484
2015-10-24 13:41:20.682041,468,504.86074147447084
2015-10-24 13:41:20.697690,469,504.86854916636685
2015-10-24 13:41:20.697874,470,504.87635685826285
2015-10-24 13:41:20.698026,478,504.88416455015886
2015-10-24 13:41:20.713695,486,504.89197224205486
2015-10-24 13:41:20.714087,494,504.89977993395087
2015-10-24 13:41:20.714275,532,504.90758762584687
2015-10-24 13:41:20.729596,611,504.91539531774288
2015-10-24 13:41:20.729847,694,504.923203009639
2015-10-24 13:41:20.730002,781,504.931010701535
2015-10-24 13:41:20.745572,804,504.93881839343101
2015-10-24 13:41:20.745818,767,504.94662608532701
2015-10-24 13:41:20.745972,674,504.95443377722302
2015-10-24 13:41:20.746124,483,504.96224146911902
2015-10-24 13:41:20.761858,358,504.79200326615
2015-10-24 13:41:20.762117,355,504.61058276543577
2015-10-24 13:41:20.762283,389,504.42916226472153
2015-10-24 13:41:20.777741,433,504.24774176400729
2015-10-24 13:41:20.777918,465,504.06632126329316
2015-10-24 13:41:20.778073,477,503.88490076257892
2015-10-24 13:41:20.793714,478,503.70348026186468
2015-10-24 13:41:20.793890,475,503.52205976115056
2015-10-24 13:41:20.794043,477,503.34063926043632
2015-10-24 13:41:20.809720,481,503.15921875972208
2015-10-24 13:41:20.809900,487,502.97779825900784
2015-10-24 13:41:20.810055,492,502.7963777582936
2015-10-24 13:41:20.825688,494,502.61495725757948
2015-10-24 13:41:20.825866,497,502.43353675686524
2015-10-24 13:41:20.826019,498,502.252116256151
2015-10-24 13:41:20.841692,500,502.07069575543676
2015-10-24 13:41:20.841867,503,501.88927525472263
2015-10-24 13:41:20.842019,510,501.70785475400839
2015-10-24 13:41:20.857656,515,501.52643425329416
2015-10-24 13:41:20.857831,519,501.34501375257992
2015-10-24 13:41:20.857984,523,501.16359325186568
2015-10-24 13:41:20.873625,529,500.98217275115144
2015-10-24 13:41:20.873799,534,500.8007522504372
2015-10-24 13:41:20.873947,539,500.61933174972296
2015-10-24 13:41:20.889717,546,500.43791124900883
2015-10-24 13:41:20.889900,555,500.25649074829471
2015-10-24 13:41:20.890056,562,500.07507024758047
2015-10-24 13:41:20.905600,567,499.89364974686623
2015-10-24 13:41:20.905779,575,499.71222924615199
2015-10-24 13:41:20.905934,585,499.53080874543775
2015-10-24 13:41:20.921661,592,499.34938824472351
2015-10-24 13:41:20.921847,596,499.16796774400927
2015-10-24 13:41:20.922003,600,499.00725276690321
2015-10-24 13:41:20.937582,601,498.7947308602337
2015-10-24 13:41:20.937764,601,498.60550266762345
2015-10-24 13:41:20.937916,598,498.41627447501321
2015-10-24 13:41:20.953584,594,498.22704628240297
2015-10-24 13:41:20.953768,589,498.03781808979284
2015-10-24 13:41:20.953918,582,497.84858989718259
2015-10-24 13:41:20.969496,572,497.65936170457235
2015-10-24 13:41:20.969745,561,497.4701335119621
2015-10-24 13:41:20.969898,547,497.28090531935186
2015-10-24 13:41:20.985577,530,497.09167712674162
2015-10-24 13:41:20.985839,512,496.90244893413137
2015-10-24 13:41:20.985994,496,496.71322074152113
2015-10-24 13:41:21.001466,483,496.52399254891088
2015-10-24 13:41:21.001717,471,496.33476435630064
2015-10-24 13:41:21.001873,461,496.14553616369039
2015-10-24 13:41:21.002025,455,495.95630797108015
2015-10-24 13:41:21.017493,450,495.76707977846991
2015-10-24 13:41:21.017672,446,495.57785158585966
2015-10-24 13:41:21.017822,444,495.38862339324942
2015-10-24 13:41:21.033666,445,495.19939520063917
2015-10-24 13:41:21.033849,446,495.01016700802893
2015-10-24 13:41:21.034001,443,494.82093881541869
2015-10-24 13:41:21.049480,443,494.63171062280844
2015-10-24 13:41:21.049656,445,494.4424824301982
2015-10-24 13:41:21.049806,444,494.25325423758795
2015-10-24 13:41:21.065618,443,494.06402604497771
2015-10-24 13:41:21.065837,445,493.87479785236746
2015-10-24 13:41:21.065994,448,493.68556965975722
2015-10-24 13:41:21.081582,450,493.49634146714698
2015-10-24 13:41:21.081762,451,493.30711327453673
2015-10-24 13:41:21.081915,453,493.11788508192649
2015-10-24 13:41:21.097701,457,492.92865688931624
2015-10-24 13:41:21.097969,459,492.739428696706
2015-10-24 13:41:21.098133,460,492.57501725763711
2015-10-24 13:41:21.113616,462,492.42093368471541
2015-10-24 13:41:21.113793,464,492.23708592160699
2015-10-24 13:41:21.113943,464,492.05323815849857
2015-10-24 13:41:21.129638,467,491.86939039539004
2015-10-24 13:41:21.129895,470,491.68554263228162
2015-10-24 13:41:21.130074,471,491.50169486917321
2015-10-24 13:41:21.145564,470,491.31784710606479
2015-10-24 13:41:21.145741,472,491.13399934295626
2015-10-24 13:41:21.145989,475,490.95015157984784
2015-10-24 13:41:21.161558,476,490.76630381673942
2015-10-24 13:41:21.161746,477,490.58245605363101
2015-10-24 13:41:21.161901,475,490.39860829052253
2015-10-24 13:41:21.177610,477,490.21476052741411
2015-10-24 13:41:21.177884,477,490.03091276430564
2015-10-24 13:41:21.178065,475,489.84706500119722
2015-10-24 13:41:21.193510,474,489.66321723808875
2015-10-24 13:41:21.193695,476,489.47936947498033
2015-10-24 13:41:21.193854,475,489.29552171187191
2015-10-24 13:41:21.209417,475,489.1116739487635
2015-10-24 13:41:21.209672,475,488.92782618565496
2015-10-24 13:41:21.209827,475,488.74397842254655
2015-10-24 13:41:21.225383,475,488.56013065943813
2015-10-24 13:41:21.225633,473,488.37628289632971
2015-10-24 13:41:21.225789,473,488.19243513322118
2015-10-24 13:41:21.241329,474,488.00858737011276
2015-10-24 13:41:21.241581,472,487.82473960700435
2015-10-24 13:41:21.241736,473,487.64089184389593
2015-10-24 13:41:21.241888,474,487.45704408078745
2015-10-24 13:41:21.257570,473,487.27319631767904
2015-10-24 13:41:21.257751,473,487.08934855457056
2015-10-24 13:41:21.257905,476,486.90550079146215
2015-10-24 13:41:21.273591,479,486.72165302835373
2015-10-24 13:41:21.273770,479,486.53780526524531
2015-10-24 13:41:21.273925,476,486.53200339700197
2015-10-24 13:41:21.289514,478,486.53738382650386
2015-10-24 13:41:21.289688,484,486.54276425600568
2015-10-24 13:41:21.289837,484,486.54814468550751
2015-10-24 13:41:21.305493,482,486.55352511500928
2015-10-24 13:41:21.305673,485,486.55890554451111
2015-10-24 13:41:21.305827,488,486.56428597401293
2015-10-24 13:41:21.321514,488,486.56966640351476
2015-10-24 13:41:21.321693,491,486.57504683301659
2015-10-24 13:41:21.321848,493,486.58042726251841
2015-10-24 13:41:21.337468,491,486.58580769202024
2015-10-24 13:41:21.337649,488,486.59118812152207
2015-10-24 13:41:21.337803,491,486.59656855102389
2015-10-24 13:41:21.353407,497,486.60194898052566
2015-10-24 13:41:21.353587,500,486.60732941002749
2015-10-24 13:41:21.353742,501,486.61270983952932
2015-10-24 13:41:21.369537,503,486.61809026903114
2015-10-24 13:41:21.369719,502,486.62347069853297
2015-10-24 13:41:21.369875,495,486.6288511280348
2015-10-24 13:41:21.385289,485,486.63423155753662
2015-10-24 13:41:21.385467,478,486.63961198703845
2015-10-24 13:41:21.385621,477,486.64499241654022
2015-10-24 13:41:21.401403,478,486.65037284604205
2015-10-24 13:41:21.401588,479,486.65575327554387
2015-10-24 13:41:21.401742,479,486.65854551459472
2015-10-24 13:41:21.417433,479,486.66004365842002
2015-10-24 13:41:21.417615,478,486.66154180224532
2015-10-24 13:41:21.417767,479,486.66303994607063
2015-10-24 13:41:21.433245,480,486.66453808989593
2015-10-24 13:41:21.433431,481,486.66603623372123
2015-10-24 13:41:21.433571,484,486.66753437754653
2015-10-24 13:41:21.449454,493,486.66903252137183
2015-10-24 13:41:21.449918,497,486.67053066519713
2015-10-24 13:41:21.450071,521,486.67202880902244
2015-10-24 13:41:21.465137,587,486.67352695284774
2015-10-24 13:41:21.465332,669,486.67502509667304
2015-10-24 13:41:21.465489,764,486.67652324049834
2015-10-24 13:41:21.481270,829,486.6780213843237
2015-10-24 13:41:21.481520,809,486.679519528149
2015-10-24 13:41:21.481678,748,486.6810176719743
2015-10-24 13:41:21.481831,585,486.6825158157996
2015-10-24 13:41:21.497630,403,486.72283681639027
2015-10-24 13:41:21.497855,358,486.71179055104494
2015-10-24 13:41:21.497964,383,486.70850885705272
2015-10-24 13:41:21.513652,423,486.70522716306044
2015-10-24 13:41:21.513885,466,486.70194546906828
2015-10-24 13:41:21.514049,484,486.69866377507606
2015-10-24 13:41:21.529466,485,486.69538208108378
2015-10-24 13:41:21.529649,482,486.69210038709156
2015-10-24 13:41:21.529810,482,486.68881869309928
2015-10-24 13:41:21.545441,485,486.68553699910711
2015-10-24 13:41:21.545620,491,486.68225530511489
2015-10-24 13:41:21.545778,497,486.67897361112261
2015-10-24 13:41:21.561389,499,486.67569191713039
2015-10-24 13:41:21.561566,500,486.67241022313817
2015-10-24 13:41:21.561719,502,486.66912852914595
2015-10-24 13:41:21.577376,507,486.66584683515367
2015-10-24 13:41:21.577551,510,486.66256514116145
2015-10-24 13:41:21.577766,512,486.65928344716929
2015-10-24 13:41:21.593440,518,486.65600175317695
2015-10-24 13:41:21.593682,521,486.65272005918479
2015-10-24 13:41:21.593806,523,486.64943836519251
2015-10-24 13:41:21.609398,527,486.64615667120029
2015-10-24 13:41:21.609579,533,486.64287497720801
2015-10-24 13:41:21.609735,542,486.63959328321585
2015-10-24 13:41:21.625439,549,486.63631158922362
2015-10-24 13:41:21.625620,553,486.60821314168993
2015-10-24 13:41:21.625775,560,486.56978682800917
2015-10-24 13:41:21.641333,567,486.56112470451507
2015-10-24 13:41:21.641518,575,486.55246258102102
2015-10-24 13:41:21.641675,583,486.54380045752691
2015-10-24 13:41:21.657309,592,486.53513833403287
2015-10-24 13:41:21.657497,599,486.52647621053882
2015-10-24 13:41:21.657655,604,486.51781408704471
2015-10-24 13:41:21.673304,607,486.50915196355066
2015-10-24 13:41:21.673491,607,486.50048984005662
2015-10-24 13:41:21.673647,604,486.49182771656251
2015-10-24 13:41:21.689309,600,486.48316559306846
2015-10-24 13:41:21.689496,596,486.47450346957447
2015-10-24 13:41:21.689650,592,486.46584134608042
2015-10-24 13:41:21.705218,582,486.45717922258638
2015-10-24 13:41:21.705465,571,486.44851709909233
2015-10-24 13:41:21.705619,559,486.43985497559834
2015-10-24 13:41:21.721219,545,486.43119285210429
2015-10-24 13:41:21.721470,527,486.4225307286103
2015-10-24 13:41:21.721626,510,486.41386860511619
2015-10-24 13:41:21.737192,497,486.4052064816222
2015-10-24 13:41:21.737440,484,486.39654435812815
2015-10-24 13:41:21.737599,469,486.38788223463416
2015-10-24 13:41:21.737752,459,486.37922011114006
2015-10-24 13:41:21.753279,455,486.37055798764607
2015-10-24 13:41:21.753546,451,486.36189586415207
2015-10-24 13:41:21.753658,445,486.35323374065803
2015-10-24 13:41:21.769389,442,486.34457161716392
2015-10-24 13:41:21.769576,442,486.33590949366987
2015-10-24 13:41:21.769732,443,486.32724737017588
2015-10-24 13:41:21.784985,444,486.31858524668183
2015-10-24 13:41:21.785090,444,486.30992312318773
2015-10-24 13:41:21.785181,445,486.30126099969368
2015-10-24 13:41:21.801022,444,486.29259887619969
2015-10-24 13:41:21.801146,444,486.33220814836307
2015-10-24 13:41:21.801255,446,486.5907666827805
2015-10-24 13:41:21.816960,449,486.8548234542136
2015-10-24 13:41:21.817074,453,487.11888022564676
2015-10-24 13:41:21.817172,453,487.38293699707987
2015-10-24 13:41:21.832829,454,487.64699376851297
2015-10-24 13:41:21.832884,460,487.91105053994607
2015-10-24 13:41:21.832929,462,488.17510731137924
2015-10-24 13:41:21.848838,463,488.43916408281234
2015-10-24 13:41:21.848898,465,488.7032208542455
2015-10-24 13:41:21.848944,468,488.96727762567866
2015-10-24 13:41:21.864855,468,489.23133439711177
2015-10-24 13:41:21.864914,467,489.49539116854487
2015-10-24 13:41:21.864960,470,489.75944793997803
2015-10-24 13:41:21.880986,473,490.02350471141114
2015-10-24 13:41:21.881067,475,490.28756148284424
2015-10-24 13:41:21.881127,475,490.5516182542774
2015-10-24 13:41:21.897229,476,490.8156750257105
2015-10-24 13:41:21.897421,477,491.07973179714367
2015-10-24 13:41:21.897576,475,491.34378856857677
2015-10-24 13:41:21.913051,474,491.60784534000987
2015-10-24 13:41:21.913198,478,491.87190211144303
2015-10-24 13:41:21.913297,478,492.13595888287614
2015-10-24 13:41:21.929070,476,492.40001565430924
2015-10-24 13:41:21.929257,477,492.66666061619338
2015-10-24 13:41:21.929414,480,492.93459967330307
2015-10-24 13:41:21.945108,477,493.2025387304127
2015-10-24 13:41:21.945360,474,493.47047778752238
2015-10-24 13:41:21.945520,474,493.73841684463201
2015-10-24 13:41:21.961184,476,494.0063559017417
2015-10-24 13:41:21.961550,477,494.27429495885127
2015-10-24 13:41:21.961724,476,494.54223401596096
2015-10-24 13:41:21.977102,477,494.81017307307059
2015-10-24 13:41:21.977355,478,495.07811213018027
2015-10-24 13:41:21.977511,478,495.3460511872899
2015-10-24 13:41:21.977678,478,495.61399024439947
2015-10-24 13:41:21.993263,479,495.88192930150916
2015-10-24 13:41:21.993441,479,496.14986835861873
2015-10-24 13:41:21.993599,477,496.41780741572848
2015-10-24 13:41:22.009356,476,496.6857464728381
2015-10-24 13:41:22.009534,478,496.95368552994773
2015-10-24 13:41:22.009692,479,497.182801730292
2015-10-24 13:41:22.025255,478,497.46328519657231
2015-10-24 13:41:22.025440,479,497.73600409149947
2015-10-24 13:41:22.025605,482,498.00872298642662
2015-10-24 13:41:22.041213,483,498.28144188135377
2015-10-24 13:41:22.041392,482,498.55416077628092
2015-10-24 13:41:22.041547,482,498.82687967120819
2015-10-24 13:41:22.057219,482,499.09959856613534
2015-10-24 13:41:22.057401,484,499.37231746106249
2015-10-24 13:41:22.057558,487,499.64503635598965
2015-10-24 13:41:22.073212,491,499.9177552509168
2015-10-24 13:41:22.073390,492,500.19047414584395
2015-10-24 13:41:22.073542,492,500.4631930407711
2015-10-24 13:41:22.089188,492,500.73591193569825
2015-10-24 13:41:22.089375,493,501.00863083062541
2015-10-24 13:41:22.089529,497,501.28134972555267
2015-10-24 13:41:22.105166,495,501.55406862047982
2015-10-24 13:41:22.105346,492,501.82678751540698
2015-10-24 13:41:22.105499,495,502.09950641033413
2015-10-24 13:41:22.121165,499,502.37222530526128
2015-10-24 13:41:22.121346,500,502.64494420018843
2015-10-24 13:41:22.121500,502,502.91766309511559
2015-10-24 13:41:22.137229,507,503.19038199004274
2015-10-24 13:41:22.137416,509,503.46310088496989
2015-10-24 13:41:22.137569,504,503.73581977989704
2015-10-24 13:41:22.153140,494,504.00853867482419
2015-10-24 13:41:22.153323,487,504.28125756975135
2015-10-24 13:41:22.153479,480,504.5539764646785
2015-10-24 13:41:22.169105,479,504.82669535960576
2015-10-24 13:41:22.169286,480,505.09941425453292
2015-10-24 13:41:22.169438,481,505.37213314946007
2015-10-24 13:41:22.185025,481,505.64485204438733
2015-10-24 13:41:22.185274,481,505.91757093931449
2015-10-24 13:41:22.185429,482,506.19028983424164
2015-10-24 13:41:22.200927,483,506.46300872916891
2015-10-24 13:41:22.201125,482,506.73572762409606
2015-10-24 13:41:22.201282,482,507.00844651902321
2015-10-24 13:41:22.216928,491,507.28116541395048
2015-10-24 13:41:22.217129,502,507.55388430887763
2015-10-24 13:41:22.217286,504,507.82660320380478
2015-10-24 13:41:22.217437,536,508.09932209873193
2015-10-24 13:41:22.233238,614,508.37204099365908
2015-10-24 13:41:22.233412,701,508.64475988858635
2015-10-24 13:41:22.233562,794,508.9174787835135
2015-10-24 13:41:22.249203,834,509.19019767844065
2015-10-24 13:41:22.249380,804,509.46291657336781
2015-10-24 13:41:22.249533,714,509.73563546829496
2015-10-24 13:41:22.265031,519,510.00835436322211
2015-10-24 13:41:22.265211,377,510.21193541082687
2015-10-24 13:41:22.265365,367,510.34429810048562
2015-10-24 13:41:22.281122,399,510.47666079014436
2015-10-24 13:41:22.281299,438,510.609023479803
2015-10-24 13:41:22.281451,472,510.74138616946175
2015-10-24 13:41:22.296986,487,510.8737488591205
2015-10-24 13:41:22.297163,488,511.00611154877913
2015-10-24 13:41:22.297318,485,511.13847423843788
2015-10-24 13:41:22.313151,486,511.27083692809651
2015-10-24 13:41:22.313326,490,511.40319961775526
2015-10-24 13:41:22.313478,493,511.53556230741401
2015-10-24 13:41:22.329112,495,511.61965360141528
2015-10-24 13:41:22.329289,498,511.48479563316243
2015-10-24 13:41:22.329454,500,511.34443942789392
2015-10-24 13:41:22.345243,503,511.20408322262551
2015-10-24 13:41:22.345513,506,511.063727017357
2015-10-24 13:41:22.345679,512,510.92337081208848
2015-10-24 13:41:22.361112,518,510.78301460682007
2015-10-24 13:41:22.361288,519,510.64265840155156
2015-10-24 13:41:22.361439,522,510.50230219628315
2015-10-24 13:41:22.377169,526,510.36194599101464
2015-10-24 13:41:22.377444,532,510.22158978574612
2015-10-24 13:41:22.377622,537,510.08123358047771
2015-10-24 13:41:22.393160,545,509.9408773752092
2015-10-24 13:41:22.393345,553,509.80052116994079
2015-10-24 13:41:22.393500,559,509.66016496467228
2015-10-24 13:41:22.409080,564,509.51980875940376
2015-10-24 13:41:22.409361,570,509.37945255413536
2015-10-24 13:41:22.409520,578,509.23909634886684
2015-10-24 13:41:22.424995,584,509.09874014359843
2015-10-24 13:41:22.425246,592,508.95838393832992
2015-10-24 13:41:22.425403,598,508.8180277330614
2015-10-24 13:41:22.440857,602,508.677671527793
2015-10-24 13:41:22.441059,603,508.53731532252448
2015-10-24 13:41:22.441211,603,508.39695911725607
2015-10-24 13:41:22.457010,604,508.25660291198756
2015-10-24 13:41:22.457257,600,508.11624670671904
2015-10-24 13:41:22.457414,593,507.97589050145064
2015-10-24 13:41:22.457566,587,507.83553429618212
2015-10-24 13:41:22.473037,578,507.6951780909136
2015-10-24 13:41:22.473211,569,507.55482188564508
2015-10-24 13:41:22.473361,557,507.41446568037657
2015-10-24 13:41:22.489052,542,507.27410947510816
2015-10-24 13:41:22.489229,526,507.13375326983953
2015-10-24 13:41:22.489380,510,506.99339706457113
2015-10-24 13:41:22.504842,495,506.8530408593025
2015-10-24 13:41:22.505019,482,506.71268465403409
2015-10-24 13:41:22.505171,471,506.57232844876557
2015-10-24 13:41:22.521211,464,506.43197224349706
2015-10-24 13:41:22.521496,457,506.29161603822854
2015-10-24 13:41:22.521628,450,506.15125983296002
2015-10-24 13:41:22.537053,447,506.0109036276915
2015-10-24 13:41:22.537230,447,505.87054742242299
2015-10-24 13:41:22.537384,447,505.8500526181856
2015-10-24 13:41:22.553006,446,505.83436254742276
2015-10-24 13:41:22.553182,443,505.79926104827712
2015-10-24 13:41:22.553333,443,505.76415954913159
2015-10-24 13:41:22.568999,444,505.72905804998607
2015-10-24 13:41:22.569174,447,505.69395655084054
2015-10-24 13:41:22.569325,447,505.6588550516949
2015-10-24 13:41:22.584975,444,505.62375355254937
2015-10-24 13:41:22.585156,445,505.58865205340373
2015-10-24 13:41:22.585310,450,505.55355055425821
2015-10-24 13:41:22.600806,454,505.51844905511268
2015-10-24 13:41:22.600982,453,505.48334755596716
2015-10-24 13:41:22.601135,454,505.44824605682152
2015-10-24 13:41:22.617021,460,505.41314455767599
2015-10-24 13:41:22.617201,463,505.37804305853035
2015-10-24 13:41:22.617356,463,505.34294155938483
2015-10-24 13:41:22.632897,463,505.30784006023919
2015-10-24 13:41:22.633078,466,505.27273856109366
2015-10-24 13:41:22.633230,468,505.23763706194813
2015-10-24 13:41:22.649004,469,505.20253556280261
2015-10-24 13:41:22.649187,470,505.16743406365697
2015-10-24 13:41:22.649341,473,505.13233256451144
2015-10-24 13:41:22.664864,473,505.0972310653658
2015-10-24 13:41:22.665046,469,505.06212956622028
2015-10-24 13:41:22.665198,468,505.02702806707475
2015-10-24 13:41:22.680902,471,504.99192656792911
2015-10-24 13:41:22.681322,473,504.95682506878359
2015-10-24 13:41:22.681501,473,504.92172356963806
2015-10-24 13:41:22.696811,473,504.88662207049242
2015-10-24 13:41:22.697059,472,504.8515205713469
2015-10-24 13:41:22.697215,470,504.81641907220126
2015-10-24 13:41:22.712923,467,504.78131757305573
2015-10-24 13:41:22.713317,470,504.7462160739102
2015-10-24 13:41:22.713500,471,504.71111457476468
2015-10-24 13:41:22.713645,470,504.67601307561904
2015-10-24 13:41:22.728974,470,504.64091157647351
2015-10-24 13:41:22.729151,470,504.60581007732787
2015-10-24 13:41:22.729305,467,504.57070857818235
2015-10-24 13:41:22.744952,465,504.53560707903671
2015-10-24 13:41:22.745128,466,504.50050557989118
2015-10-24 13:41:22.745284,469,504.46540408074566
2015-10-24 13:41:22.761098,470,504.43030258160013
2015-10-24 13:41:22.761365,468,504.39520108245461
2015-10-24 13:41:22.761531,467,504.36009958330908
2015-10-24 13:41:22.776948,468,504.32499808416355
2015-10-24 13:41:22.777126,466,504.28989658501803
2015-10-24 13:41:22.777284,468,504.2547950858725
2015-10-24 13:41:22.792916,470,504.28883143404948
2015-10-24 13:41:22.793091,470,504.39408614017248
2015-10-24 13:41:22.793241,466,504.49934084629547
2015-10-24 13:41:22.808921,465,504.60459555241835
2015-10-24 13:41:22.809095,469,504.70985025854134
2015-10-24 13:41:22.809248,474,504.81510496466433
2015-10-24 13:41:22.824876,472,504.92035967078732
2015-10-24 13:41:22.825056,470,505.02561437691031
2015-10-24 13:41:22.825208,474,505.1308690830333
2015-10-24 13:41:22.840870,477,505.2361237891563
2015-10-24 13:41:22.841043,478,505.34137849527929
2015-10-24 13:41:22.841191,478,505.44663320140216
2015-10-24 13:41:22.856875,482,505.55188790752527
2015-10-24 13:41:22.857052,485,505.65714261364815
2015-10-24 13:41:22.857210,483,505.76239731977114
2015-10-24 13:41:22.872823,481,505.86765202589413
2015-10-24 13:41:22.873006,485,505.97290673201712
2015-10-24 13:41:22.873159,487,506.07816143814011
2015-10-24 13:41:22.888823,489,506.18341614426311
2015-10-24 13:41:22.889010,492,506.28867085038598
2015-10-24 13:41:22.889160,497,506.39392555650909
2015-10-24 13:41:22.904813,495,506.49918026263197
2015-10-24 13:41:22.904999,488,506.60443496875496
2015-10-24 13:41:22.905156,483,506.70968967487795
2015-10-24 13:41:22.920730,477,506.81494438100083
2015-10-24 13:41:22.920979,472,506.92019908712382
2015-10-24 13:41:22.921131,473,507.02545379324681
2015-10-24 13:41:22.936731,475,507.1307084993698
2015-10-24 13:41:22.936979,478,507.23596320549268
2015-10-24 13:41:22.937136,481,507.34121791161567
2015-10-24 13:41:22.952705,484,507.44647261773855
2015-10-24 13:41:22.952956,484,507.55172732386166
2015-10-24 13:41:22.953110,484,507.65698202998453
2015-10-24 13:41:22.953257,480,507.76223673610752
2015-10-24 13:41:22.968732,481,507.8674914422304
2015-10-24 13:41:22.968909,493,507.97274614835351
2015-10-24 13:41:22.969061,498,508.07800085447639
2015-10-24 13:41:22.984936,507,508.18325556059938
2015-10-24 13:41:22.985116,550,508.28851026672226
2015-10-24 13:41:22.985271,622,508.39376497284525
2015-10-24 13:41:23.000868,705,508.49901967896824
2015-10-24 13:41:23.001039,769,508.60427438509123
2015-10-24 13:41:23.001191,769,508.70952909121422
2015-10-24 13:41:23.016842,738,508.8147837973371
2015-10-24 13:41:23.017017,620,508.92003850346009
2015-10-24 13:41:23.017171,438,509.02529320958308
2015-10-24 13:41:23.032836,364,509.03356546076373
2015-10-24 13:41:23.033087,381,509.0651314260034
2015-10-24 13:41:23.033265,408,509.09669739124308
2015-10-24 13:41:23.048932,442,509.12826335648288
2015-10-24 13:41:23.049186,476,509.15982932172267
2015-10-24 13:41:23.049355,492,509.19139528696246
2015-10-24 13:41:23.064857,491,509.22296125220214
2015-10-24 13:41:23.065038,484,509.1346658164108
2015-10-24 13:41:23.065189,483,509.04156564714492
2015-10-24 13:41:23.080797,488,508.96787690626161
2015-10-24 13:41:23.080978,495,508.89418816537841
2015-10-24 13:41:23.081132,497,508.82049942449521
2015-10-24 13:41:23.097052,501,508.74681068361201
2015-10-24 13:41:23.097578,504,508.6731219427287
2015-10-24 13:41:23.097758,507,508.5994332018455
2015-10-24 13:41:23.112809,511,508.5257444609623
2015-10-24 13:41:23.112997,515,508.4520557200791
2015-10-24 13:41:23.113151,518,508.37836697919579
2015-10-24 13:41:23.128746,519,508.30467823831259
2015-10-24 13:41:23.128930,522,508.23098949742939
2015-10-24 13:41:23.129084,528,508.15730075654619
2015-10-24 13:41:23.144831,531,508.08361201566288
2015-10-24 13:41:23.145020,533,508.00992327477968
2015-10-24 13:41:23.145174,536,507.93623453389648
2015-10-24 13:41:23.160739,542,507.86254579301328
2015-10-24 13:41:23.160994,552,507.78885705212997
2015-10-24 13:41:23.161148,559,507.71516831124677
2015-10-24 13:41:23.176653,566,507.64147957036357
2015-10-24 13:41:23.176902,573,507.56779082948037
2015-10-24 13:41:23.177060,578,507.49410208859717
2015-10-24 13:41:23.192634,582,507.42041334771386
2015-10-24 13:41:23.192885,589,507.34672460683066
2015-10-24 13:41:23.193044,593,507.27303586594746
2015-10-24 13:41:23.208627,591,507.19934712506426
2015-10-24 13:41:23.208882,590,507.12565838418095
2015-10-24 13:41:23.209039,589,507.05196964329775
2015-10-24 13:41:23.209190,585,506.97828090241455
2015-10-24 13:41:23.224801,576,506.90459216153135
2015-10-24 13:41:23.224979,566,506.83090342064804
2015-10-24 13:41:23.225134,559,506.75721467976473
2015-10-24 13:41:23.240816,548,506.68352593888142
2015-10-24 13:41:23.240991,535,506.6098371979981
2015-10-24 13:41:23.241143,519,506.53614845711479
2015-10-24 13:41:23.256776,505,506.46245971623148
2015-10-24 13:41:23.256953,492,506.38877097534817
2015-10-24 13:41:23.257105,479,506.31508223446497
2015-10-24 13:41:23.272753,471,506.24139349358165
2015-10-24 13:41:23.272934,465,506.16770475269834
2015-10-24 13:41:23.273085,459,506.09401601181503
2015-10-24 13:41:23.288874,451,506.02032727093172
2015-10-24 13:41:23.289053,448,505.9466385300484
2015-10-24 13:41:23.289208,447,505.87294978916509
2015-10-24 13:41:23.304760,449,505.79926104828178
2015-10-24 13:41:23.304939,449,505.72557230739858
2015-10-24 13:41:23.305093,448,505.63755560717766
2015-10-24 13:41:23.320697,451,505.69535022869809
2015-10-24 13:41:23.320880,453,505.73449494157694
2015-10-24 13:41:23.321033,456,505.77363965445579
2015-10-24 13:41:23.336694,461,505.81278436733464
2015-10-24 13:41:23.336872,465,505.85192908021338
2015-10-24 13:41:23.337026,467,505.89107379309223
2015-10-24 13:41:23.352552,468,505.93021850597108
2015-10-24 13:41:23.352731,473,505.96936321884994
2015-10-24 13:41:23.352885,479,506.00850793172879
2015-10-24 13:41:23.368661,482,506.04765264460764
2015-10-24 13:41:23.368845,481,506.08679735748649
2015-10-24 13:41:23.369000,483,506.12594207036534
2015-10-24 13:41:23.384531,489,506.16508678324419
2015-10-24 13:41:23.384716,492,506.20423149612304
2015-10-24 13:41:23.384873,499,506.24337620900189
2015-10-24 13:41:23.400652,503,506.28252092188075
2015-10-24 13:41:23.400836,505,506.32166563475971
2015-10-24 13:41:23.400991,504,506.36081034763856
2015-10-24 13:41:23.416620,506,506.39995506051741
2015-10-24 13:41:23.416866,508,506.43909977339626
2015-10-24 13:41:23.417046,508,506.47824448627523
2015-10-24 13:41:23.432551,508,506.51738919915408
2015-10-24 13:41:23.432801,508,506.55653391203293
2015-10-24 13:41:23.432955,512,506.59567862491178
2015-10-24 13:41:23.448560,513,506.63482333779075
2015-10-24 13:41:23.448808,512,506.6739680506696
2015-10-24 13:41:23.448965,513,506.71311276354845
2015-10-24 13:41:23.449118,514,506.7522574764273
2015-10-24 13:41:23.464555,514,506.79140218930615
2015-10-24 13:41:23.464733,512,506.83054690218512
2015-10-24 13:41:23.464885,514,506.86969161506386
2015-10-24 13:41:23.480703,513,506.90883632794271
2015-10-24 13:41:23.480883,511,506.94798104082167
2015-10-24 13:41:23.481037,509,506.98712575370052
2015-10-24 13:41:23.496702,512,507.02627046657938
2015-10-24 13:41:23.496877,512,507.06541517945823
2015-10-24 13:41:23.497030,510,507.10455989233731
2015-10-24 13:41:23.512781,509,507.14370460521616
2015-10-24 13:41:23.512844,512,507.18284931809512
2015-10-24 13:41:23.512896,514,507.22199403097397
2015-10-24 13:41:23.528522,516,507.26113874385294
2015-10-24 13:41:23.528698,514,507.3002834567319
2015-10-24 13:41:23.528848,514,507.33942816961087
2015-10-24 13:41:23.545086,514,507.37857288248983
2015-10-24 13:41:23.545238,513,507.41771759536869
2015-10-24 13:41:23.545338,513,507.55384476319011
2015-10-24 13:41:23.560346,513,507.66667821695228
2015-10-24 13:41:23.560523,508,507.77951167071456
2015-10-24 13:41:23.560624,505,507.89234512447672
2015-10-24 13:41:23.576624,507,508.00517857823888
2015-10-24 13:41:23.576800,511,508.11801203200116
2015-10-24 13:41:23.576956,511,508.23084548576333
2015-10-24 13:41:23.592646,509,508.34367893952549
2015-10-24 13:41:23.592827,510,508.45651239328777
2015-10-24 13:41:23.592983,510,508.56934584704993
2015-10-24 13:41:23.608578,502,508.68217930081221
2015-10-24 13:41:23.608758,492,508.79501275457437
2015-10-24 13:41:23.608911,485,508.90784620833665
2015-10-24 13:41:23.624620,482,509.02067966209881
2015-10-24 13:41:23.624819,483,509.13351311586109
2015-10-24 13:41:23.624970,485,509.24634656962326
2015-10-24 13:41:23.640574,486,509.35918002338542
2015-10-24 13:41:23.640759,484,509.4720134771477
2015-10-24 13:41:23.640910,481,509.58484693090986
2015-10-24 13:41:23.656477,482,509.69768038467214
2015-10-24 13:41:23.656724,485,509.8105138384343
2015-10-24 13:41:23.656879,485,509.92334729219658
2015-10-24 13:41:23.672552,490,510.03618074595875
2015-10-24 13:41:23.672795,502,510.14901419972102
2015-10-24 13:41:23.672951,504,510.26184765348319
2015-10-24 13:41:23.688446,523,510.37468110724535
2015-10-24 13:41:23.688696,582,510.48751456100752
2015-10-24 13:41:23.688853,656,510.60034801476979
2015-10-24 13:41:23.689005,743,510.71318146853196
2015-10-24 13:41:23.704616,797,510.82601492229412
2015-10-24 13:41:23.704794,777,510.93884837605628
2015-10-24 13:41:23.704946,724,511.05168182981856
2015-10-24 13:41:23.720552,575,511.16451528358073
2015-10-24 13:41:23.720731,407,511.31393015542778
2015-10-24 13:41:23.720883,368,511.29761459732367
2015-10-24 13:41:23.736636,392,511.30071046760213
2015-10-24 13:41:23.736816,422,511.3038063378807
2015-10-24 13:41:23.736970,458,511.30690220815904
2015-10-24 13:41:23.752569,484,511.3099980784375
2015-10-24 13:41:23.752746,492,511.31309394871607
2015-10-24 13:41:23.752911,490,511.31618981899453
2015-10-24 13:41:23.768581,487,511.31928568927299
2015-10-24 13:41:23.768757,490,511.32238155955145
2015-10-24 13:41:23.768909,495,511.3254774298299
2015-10-24 13:41:23.784579,499,511.32857330010836
2015-10-24 13:41:23.784758,502,511.33166917038682
2015-10-24 13:41:23.784913,506,511.33476504066527
2015-10-24 13:41:23.800448,511,511.33786091094373
2015-10-24 13:41:23.800630,513,511.3409567812223
2015-10-24 13:41:23.800781,515,511.34405265150065
2015-10-24 13:41:23.816553,520,511.3471485217791
2015-10-24 13:41:23.816733,525,511.35024439205768
2015-10-24 13:41:23.816888,530,511.35334026233602
2015-10-24 13:41:23.832527,535,511.35643613261448
2015-10-24 13:41:23.832704,543,511.37385996223043
2015-10-24 13:41:23.832859,549,511.24547247010526
2015-10-24 13:41:23.848586,551,511.13573488662144
2015-10-24 13:41:23.848866,556,511.02599730313773
2015-10-24 13:41:23.849048,564,510.91625971965402
2015-10-24 13:41:23.864499,573,510.80652213617032
2015-10-24 13:41:23.864690,578,510.69678455268661
2015-10-24 13:41:23.864845,587,510.58704696920279
2015-10-24 13:41:23.880638,597,510.47730938571908
2015-10-24 13:41:23.880948,603,510.36757180223537
2015-10-24 13:41:23.881120,607,510.25783421875167
2015-10-24 13:41:23.896383,612,510.14809663526796
2015-10-24 13:41:23.896635,616,510.03835905178414
2015-10-24 13:41:23.896791,616,509.92862146830043
2015-10-24 13:41:23.912381,611,509.81888388481673
2015-10-24 13:41:23.912633,607,509.70914630133302
2015-10-24 13:41:23.912788,604,509.59940871784931
2015-10-24 13:41:23.928449,596,509.48967113436549
2015-10-24 13:41:23.928739,585,509.37993355088179
2015-10-24 13:41:23.928928,574,509.27019596739797
2015-10-24 13:41:23.929062,560,509.16045838391426
2015-10-24 13:41:23.944409,543,509.05072080043044
2015-10-24 13:41:23.944585,527,508.94098321694673
2015-10-24 13:41:23.944741,512,508.83124563346291
2015-10-24 13:41:23.960768,499,508.72150804997909
2015-10-24 13:41:23.961002,485,508.61177046649539
2015-10-24 13:41:23.961164,474,508.50203288301157
2015-10-24 13:41:23.976583,468,508.39229529952786
2015-10-24 13:41:23.976757,464,508.28255771604404
2015-10-24 13:41:23.976905,459,508.17282013256033
2015-10-24 13:41:23.992530,455,508.06308254907651
2015-10-24 13:41:23.992711,452,507.95334496559281
2015-10-24 13:41:23.992866,450,507.84360738210898
2015-10-24 13:41:24.008497,449,507.73386979862528
2015-10-24 13:41:24.008677,449,507.62413221514146
2015-10-24 13:41:24.008836,451,507.51439463165775
2015-10-24 13:41:24.024503,451,507.40465704817393
2015-10-24 13:41:24.024682,450,507.29491946469022
2015-10-24 13:41:24.024836,452,507.1851818812064
2015-10-24 13:41:24.040496,454,507.0754442977227
2015-10-24 13:41:24.040675,455,506.96570671423888
2015-10-24 13:41:24.040828,455,506.85596913075517
2015-10-24 13:41:24.056551,459,506.74623154727135
2015-10-24 13:41:24.056737,463,506.63649396378764
2015-10-24 13:41:24.056898,464,506.52675638030382
2015-10-24 13:41:24.072446,465,506.41701879682012
2015-10-24 13:41:24.072624,467,506.44059124644991
2015-10-24 13:41:24.072774,471,506.58850797447178
2015-10-24 13:41:24.088441,475,506.71830736933634
2015-10-24 13:41:24.088618,477,506.84810676420102
2015-10-24 13:41:24.088775,478,506.9779061590657
2015-10-24 13:41:24.104468,478,507.10770555393037
2015-10-24 13:41:24.104741,481,507.23750494879505
2015-10-24 13:41:24.105056,482,507.36730434365973
2015-10-24 13:41:24.120106,483,507.4971037385244
2015-10-24 13:41:24.120229,484,507.62690313338908
2015-10-24 13:41:24.120327,483,507.75670252825364
2015-10-24 13:41:24.136176,482,507.88650192311832
2015-10-24 13:41:24.136302,483,508.01630131798299
2015-10-24 13:41:24.136399,483,508.14610071284767
2015-10-24 13:41:24.152286,480,508.27590010771223
2015-10-24 13:41:24.152539,481,508.40569950257691
2015-10-24 13:41:24.152696,482,508.53549889744158
2015-10-24 13:41:24.168278,480,508.66529829230626
2015-10-24 13:41:24.168535,476,508.79509768717094
2015-10-24 13:41:24.168696,476,508.92489708203561
2015-10-24 13:41:24.184236,478,509.05469647690029
2015-10-24 13:41:24.184573,476,509.18449587176497
2015-10-24 13:41:24.184791,475,509.31429526662953
2015-10-24 13:41:24.184898,477,509.4440946614942
2015-10-24 13:41:24.200417,480,509.57389405635888
2015-10-24 13:41:24.200588,478,509.70369345122356
2015-10-24 13:41:24.200735,477,509.83349284608823
2015-10-24 13:41:24.216273,476,509.9632922409528
2015-10-24 13:41:24.216448,476,510.09309163581747
2015-10-24 13:41:24.216602,475,510.22289103068215
2015-10-24 13:41:24.232506,478,510.35269042554683
2015-10-24 13:41:24.232689,482,510.4824898204115
2015-10-24 13:41:24.232844,484,510.61228921527618
2015-10-24 13:41:24.248408,482,510.70550719205596
2015-10-24 13:41:24.248587,482,510.96445559878703
2015-10-24 13:41:24.248740,485,511.20399257713541
2015-10-24 13:41:24.264530,485,511.44352955548379
2015-10-24 13:41:24.264797,484,511.68306653383218
2015-10-24 13:41:24.264960,486,511.92260351218056
2015-10-24 13:41:24.280384,489,512.16214049052894
2015-10-24 13:41:24.280561,488,512.40167746887732
2015-10-24 13:41:24.280713,487,512.64121444722582
2015-10-24 13:41:24.296526,491,512.8807514255742
2015-10-24 13:41:24.296802,496,513.12028840392259
2015-10-24 13:41:24.296961,498,513.35982538227097
2015-10-24 13:41:24.312545,499,513.59936236061935
2015-10-24 13:41:24.312783,500,513.83889933896785
2015-10-24 13:41:24.312907,499,514.07843631731623
2015-10-24 13:41:24.328361,492,514.31797329566461
2015-10-24 13:41:24.328549,483,514.557510274013
2015-10-24 13:41:24.328709,477,514.79704725236138
2015-10-24 13:41:24.344392,475,515.03658423070988
2015-10-24 13:41:24.344670,473,515.27612120905826
2015-10-24 13:41:24.344857,475,515.51565818740664
2015-10-24 13:41:24.360254,476,515.75519516575503
2015-10-24 13:41:24.360442,476,515.99473214410341
2015-10-24 13:41:24.360598,477,516.23426912245191
2015-10-24 13:41:24.376256,478,516.47380610080029
2015-10-24 13:41:24.376441,479,516.71334307914867
2015-10-24 13:41:24.376596,478,516.95288005749705
2015-10-24 13:41:24.392157,481,517.19241703584544
2015-10-24 13:41:24.392404,492,517.43195401419393
2015-10-24 13:41:24.392560,495,517.67149099254232
2015-10-24 13:41:24.408144,525,517.9110279708907
2015-10-24 13:41:24.408395,599,518.15056494923908
2015-10-24 13:41:24.408551,678,518.39010192758747
2015-10-24 13:41:24.424138,769,518.62963890593596
2015-10-24 13:41:24.424387,818,518.86917588428435
2015-10-24 13:41:24.424543,789,519.10871286263273
2015-10-24 13:41:24.424693,718,519.34824984098111
2015-10-24 13:41:24.440348,541,519.58778681932949
2015-10-24 13:41:24.440527,383,519.73782717851793
2015-10-24 13:41:24.440685,359,519.71816191022151
2015-10-24 13:41:24.456324,389,519.70237892760167
2015-10-24 13:41:24.456502,430,519.68659594498172
2015-10-24 13:41:24.456654,468,519.67081296236188
2015-10-24 13:41:24.472354,484,519.65502997974204
2015-10-24 13:41:24.472539,485,519.6392469971222
2015-10-24 13:41:24.472699,483,519.62346401450225
2015-10-24 13:41:24.488474,481,519.60768103188241
2015-10-24 13:41:24.488670,484,519.59189804926245
2015-10-24 13:41:24.488824,488,519.57611506664261
2015-10-24 13:41:24.504263,492,519.56033208402278
2015-10-24 13:41:24.504442,494,519.54454910140282
2015-10-24 13:41:24.504595,498,519.52876611878298
2015-10-24 13:41:24.519898,502,519.51298313616314
2015-10-24 13:41:24.519961,505,519.49720015354319
2015-10-24 13:41:24.520007,506,519.48141717092335
2015-10-24 13:41:24.536276,510,519.46563418830351
2015-10-24 13:41:24.536456,516,519.44985120568356
2015-10-24 13:41:24.536608,520,519.43406822306372
2015-10-24 13:41:24.552071,524,519.41828524044388
2015-10-24 13:41:24.552250,529,519.40250225782404
2015-10-24 13:41:24.552402,534,519.38671927520409
2015-10-24 13:41:24.568276,539,519.37093629258425
2015-10-24 13:41:24.568458,545,519.35515330996441
2015-10-24 13:41:24.568613,553,519.33937032734445
2015-10-24 13:41:24.584183,559,519.32358734472461
2015-10-24 13:41:24.584366,565,519.30780436210466
2015-10-24 13:41:24.584519,573,519.29202137948482
2015-10-24 13:41:24.600016,582,519.14292836375137
2015-10-24 13:41:24.600194,590,518.86949106962595
2015-10-24 13:41:24.600348,596,518.61417110865762
2015-10-24 13:41:24.616166,600,518.35885114768939
2015-10-24 13:41:24.616351,605,518.10353118672117
2015-10-24 13:41:24.616504,608,517.84821122575283
2015-10-24 13:41:24.632054,605,517.59289126478461
2015-10-24 13:41:24.632375,601,517.33757130381639
2015-10-24 13:41:24.632549,598,517.08225134284805
2015-10-24 13:41:24.648083,591,516.82693138187983
2015-10-24 13:41:24.648336,581,516.57161142091161
2015-10-24 13:41:24.648494,569,516.31629145994327
2015-10-24 13:41:24.664039,558,516.06097149897505
2015-10-24 13:41:24.664288,543,515.80565153800671
2015-10-24 13:41:24.664442,524,515.55033157703849
2015-10-24 13:41:24.679948,507,515.29501161607027
2015-10-24 13:41:24.680144,491,515.03969165510193
2015-10-24 13:41:24.680299,474,514.78437169413371
2015-10-24 13:41:24.680445,457,514.52905173316549
2015-10-24 13:41:24.696286,449,514.27373177219715
2015-10-24 13:41:24.696465,446,514.01841181122893
2015-10-24 13:41:24.696622,441,513.76309185026071
2015-10-24 13:41:24.711936,440,513.50777188929237
2015-10-24 13:41:24.712111,443,513.25245192832415
2015-10-24 13:41:24.712252,443,512.99713196735593
2015-10-24 13:41:24.728193,440,512.74181200638759
2015-10-24 13:41:24.728374,440,512.48649204541937
2015-10-24 13:41:24.728526,443,512.23117208445103
2015-10-24 13:41:24.744139,444,511.97585212348281
2015-10-24 13:41:24.744317,445,511.72053216251459
2015-10-24 13:41:24.744474,446,511.46521220154625
2015-10-24 13:41:24.760252,449,511.20989224057803
2015-10-24 13:41:24.760518,451,510.95457227960981
2015-10-24 13:41:24.760682,450,510.69925231864147
2015-10-24 13:41:24.776215,453,510.57897614963986
2015-10-24 13:41:24.776394,456,510.41987712387288
2015-10-24 13:41:24.776548,457,510.25042533630187
2015-10-24 13:41:24.792091,458,510.08097354873087
2015-10-24 13:41:24.792263,461,509.91152176115986
2015-10-24 13:41:24.792414,463,509.74206997358885
2015-10-24 13:41:24.808153,465,509.57261818601785
2015-10-24 13:41:24.808335,468,509.40316639844684
2015-10-24 13:41:24.808489,472,509.23371461087584
2015-10-24 13:41:24.824149,474,509.06426282330483
2015-10-24 13:41:24.824337,474,508.89481103573382
2015-10-24 13:41:24.824497,472,508.72535924816282
2015-10-24 13:41:24.840089,475,508.5559074605917
2015-10-24 13:41:24.840271,478,508.38645567302069
2015-10-24 13:41:24.840427,476,508.21700388544969
2015-10-24 13:41:24.856081,475,508.04755209787868
2015-10-24 13:41:24.856269,476,507.87810031030767
2015-10-24 13:41:24.856421,476,507.70864852273667
2015-10-24 13:41:24.872084,477,507.53919673516566
2015-10-24 13:41:24.872269,478,507.36974494759465
2015-10-24 13:41:24.872423,479,507.20029316002365
2015-10-24 13:41:24.887999,476,507.03084137245264
2015-10-24 13:41:24.888249,474,506.86138958488164
2015-10-24 13:41:24.888407,475,506.69193779731063
2015-10-24 13:41:24.903971,477,506.52248600973962
2015-10-24 13:41:24.904221,475,506.3530342221685
2015-10-24 13:41:24.904376,474,506.1835824345975
2015-10-24 13:41:24.919971,476,506.01413064702649
2015-10-24 13:41:24.920222,478,505.84467885945548
2015-10-24 13:41:24.920472,478,505.67522707188448
2015-10-24 13:41:24.920631,480,505.50577528431359
2015-10-24 13:41:24.936136,483,505.33632349674258
2015-10-24 13:41:24.936312,485,505.16687170917157
2015-10-24 13:41:24.936463,483,504.99741992160045
2015-10-24 13:41:24.952178,484,504.82796813402945
2015-10-24 13:41:24.952357,489,504.65851634645844
2015-10-24 13:41:24.952514,491,504.48906455888743
2015-10-24 13:41:24.967970,489,504.40910939047637
2015-10-24 13:41:24.968150,491,504.49885984955029
2015-10-24 13:41:24.968304,491,504.5847280229475
2015-10-24 13:41:24.984089,490,504.67059619634472
2015-10-24 13:41:24.984270,492,504.75646436974205
2015-10-24 13:41:24.984426,497,504.84233254313926
2015-10-24 13:41:25.000092,501,504.92820071653648
2015-10-24 13:41:25.000269,499,505.0140688899337
2015-10-24 13:41:25.000423,501,505.09993706333103
2015-10-24 13:41:25.015900,502,505.18580523672824
2015-10-24 13:41:25.016072,499,505.27167341012546
2015-10-24 13:41:25.016219,490,505.35754158352279
2015-10-24 13:41:25.032098,481,505.44340975692
2015-10-24 13:41:25.032277,478,505.52927793031722
2015-10-24 13:41:25.032429,478,505.61514610371444
2015-10-24 13:41:25.048137,479,505.70101427711177
2015-10-24 13:41:25.048412,480,505.78688245050898
2015-10-24 13:41:25.048585,480,505.8727506239062
2015-10-24 13:41:25.064096,480,505.95861879730353
2015-10-24 13:41:25.064275,479,506.04448697070075
2015-10-24 13:41:25.064431,480,506.13035514409796
2015-10-24 13:41:25.080063,482,506.21622331749518
2015-10-24 13:41:25.080244,483,506.30209149089251
2015-10-24 13:41:25.080402,491,506.38795966428972
2015-10-24 13:41:25.096132,495,506.47382783768694
2015-10-24 13:41:25.096403,511,506.55969601108427
2015-10-24 13:41:25.096579,564,506.64556418448149
2015-10-24 13:41:25.112008,647,506.7314323578787
2015-10-24 13:41:25.112192,741,506.81730053127592
2015-10-24 13:41:25.112349,818,506.90316870467325
2015-10-24 13:41:25.127993,816,506.98903687807046
2015-10-24 13:41:25.128332,763,507.07490505146768
2015-10-24 13:41:25.128533,625,507.1607732248649
2015-10-24 13:41:25.143937,432,507.24664139826223
2015-10-24 13:41:25.144190,358,507.16652530179442
2015-10-24 13:41:25.144348,373,507.07175938987541
2015-10-24 13:41:25.159928,409,506.97699347795651
2015-10-24 13:41:25.160175,452,506.88222756603761
2015-10-24 13:41:25.160330,478,506.7874616541186
2015-10-24 13:41:25.160481,484,506.6926957421997
2015-10-24 13:41:25.176076,484,506.5979298302808
2015-10-24 13:41:25.176244,484,506.50316391836191
2015-10-24 13:41:25.176398,486,506.40839800644289
2015-10-24 13:41:25.192080,488,506.313632094524
2015-10-24 13:41:25.192258,492,506.21886618260498
2015-10-24 13:41:25.192408,496,506.1241002706862
2015-10-24 13:41:25.208113,497,506.02933435876719
2015-10-24 13:41:25.208290,498,505.93456844684829
2015-10-24 13:41:25.208444,503,505.83980253492939
2015-10-24 13:41:25.224065,508,505.74503662301049
2015-10-24 13:41:25.224244,512,505.65027071109148
2015-10-24 13:41:25.224395,517,505.55550479917258
2015-10-24 13:41:25.239994,521,505.46073888725357
2015-10-24 13:41:25.240171,525,505.36597297533467
2015-10-24 13:41:25.240326,529,505.27120706341566
2015-10-24 13:41:25.255982,535,505.17644115149676
2015-10-24 13:41:25.256156,540,505.08167523957775
2015-10-24 13:41:25.256306,546,504.98690932765896
2015-10-24 13:41:25.271954,551,504.89214341573995
2015-10-24 13:41:25.272135,560,504.79737750382105
2015-10-24 13:41:25.272291,571,504.70261159190204
2015-10-24 13:41:25.287967,580,504.60784567998314
2015-10-24 13:41:25.288146,585,504.51307976806413
2015-10-24 13:41:25.288299,593,504.28327006417862
2015-10-24 13:41:25.303831,600,504.09228321705837
2015-10-24 13:41:25.304010,608,503.91164913174214
2015-10-24 13:41:25.304161,611,503.73101504642591
2015-10-24 13:41:25.319912,613,503.55038096110979
2015-10-24 13:41:25.320092,613,503.36974687579357
2015-10-24 13:41:25.320242,609,503.18911279047734
2015-10-24 13:41:25.335942,606,503.00847870516111
2015-10-24 13:41:25.336130,604,502.827844619845
2015-10-24 13:41:25.336286,595,502.64721053452877
2015-10-24 13:41:25.351912,582,502.46657644921254
2015-10-24 13:41:25.352097,570,502.28594236389642
2015-10-24 13:41:25.352253,557,502.1053082785802
2015-10-24 13:41:25.367814,541,501.92467419326397
2015-10-24 13:41:25.368069,520,501.74404010794774
2015-10-24 13:41:25.368227,504,501.56340602263163
2015-10-24 13:41:25.383791,491,501.3827719373154
2015-10-24 13:41:25.384041,479,501.20213785199917
2015-10-24 13:41:25.384196,469,501.02150376668305
2015-10-24 13:41:25.399799,463,500.84086968136683
2015-10-24 13:41:25.400048,457,500.6602355960506
2015-10-24 13:41:25.400205,452,500.47960151073437
2015-10-24 13:41:25.400355,449,500.29896742541825
2015-10-24 13:41:25.415960,449,500.11833334010203
2015-10-24 13:41:25.416135,451,499.9376992547858
2015-10-24 13:41:25.416288,449,499.75706516946957
2015-10-24 13:41:25.431811,448,499.57643108415346
2015-10-24 13:41:25.431983,449,499.39579699883723
2015-10-24 13:41:25.432131,450,499.215162913521
2015-10-24 13:41:25.448023,449,499.03452882820488
2015-10-24 13:41:25.448247,451,498.85389474288866
2015-10-24 13:41:25.448354,453,498.67326065757243
2015-10-24 13:41:25.463793,452,498.4926265722562
2015-10-24 13:41:25.463968,453,498.31199248694008
2015-10-24 13:41:25.464119,456,498.13135840162386
2015-10-24 13:41:25.480066,459,497.95072431630763
2015-10-24 13:41:25.480283,462,497.77009023099151
2015-10-24 13:41:25.480389,463,497.58169157432224
2015-10-24 13:41:25.495971,465,497.52038631455275
2015-10-24 13:41:25.496148,467,497.47673382865594
2015-10-24 13:41:25.496304,468,497.43049315230814
2015-10-24 13:41:25.514955,468,497.38425247596024
2015-10-24 13:41:25.515044,473,497.33801179961245
2015-10-24 13:41:25.515113,477,497.29177112326465
2015-10-24 13:41:25.527876,476,497.24553044691675
2015-10-24 13:41:25.528072,476,497.19928977056895
2015-10-24 13:41:25.528234,477,497.15304909422116
2015-10-24 13:41:25.544064,478,497.10680841787337
2015-10-24 13:41:25.544333,477,497.06056774152546
2015-10-24 13:41:25.544567,476,497.01432706517767
2015-10-24 13:41:25.559866,477,496.96808638882987
2015-10-24 13:41:25.560048,476,496.92184571248208
2015-10-24 13:41:25.560198,475,496.87560503613417
2015-10-24 13:41:25.575842,475,496.82936435978638
2015-10-24 13:41:25.576029,477,496.78312368343859
2015-10-24 13:41:25.576180,476,496.7368830070908
2015-10-24 13:41:25.591858,473,496.69064233074289
2015-10-24 13:41:25.592046,473,496.6444016543951
2015-10-24 13:41:25.592201,473,496.5981609780473
2015-10-24 13:41:25.607903,474,496.55192030169951
2015-10-24 13:41:25.608093,472,496.50567962535172
2015-10-24 13:41:25.608248,473,496.45943894900392
2015-10-24 13:41:25.623751,475,496.41319827265602
2015-10-24 13:41:25.624002,476,496.36695759630823
2015-10-24 13:41:25.624157,478,496.32071691996038
2015-10-24 13:41:25.639720,481,496.27447624361258
2015-10-24 13:41:25.639971,486,496.22823556726479
2015-10-24 13:41:25.640126,485,496.18199489091694
2015-10-24 13:41:25.655719,484,496.13575421456915
2015-10-24 13:41:25.655968,486,496.08951353822135
2015-10-24 13:41:25.656130,489,496.04327286187356
2015-10-24 13:41:25.656280,488,496.16301645539079
2015-10-24 13:41:25.671859,490,496.29740986435911
2015-10-24 13:41:25.672030,491,496.43180327332755
2015-10-24 13:41:25.672181,486,496.56619668229598
2015-10-24 13:41:25.687867,487,496.7005900912643
2015-10-24 13:41:25.688043,491,496.83498350023274
2015-10-24 13:41:25.688197,496,496.96937690920095
2015-10-24 13:41:25.703868,497,497.10377031816938
2015-10-24 13:41:25.704045,499,497.2381637271377
2015-10-24 13:41:25.704196,501,497.37255713610614
2015-10-24 13:41:25.719842,499,497.50695054507446
2015-10-24 13:41:25.720021,494,497.64134395404278
2015-10-24 13:41:25.720173,484,497.7757373630111
2015-10-24 13:41:25.735840,477,497.91013077197954
2015-10-24 13:41:25.736016,477,498.04452418094786
2015-10-24 13:41:25.736166,477,498.17891758991618
2015-10-24 13:41:25.751812,478,498.3133109988845
2015-10-24 13:41:25.751987,480,498.44770440785294
2015-10-24 13:41:25.752140,480,498.58209781682126
2015-10-24 13:41:25.767647,479,498.71649122578958
2015-10-24 13:41:25.767830,478,498.8508846347579
2015-10-24 13:41:25.767983,481,498.98527804372634
2015-10-24 13:41:25.783857,487,499.11967145269466
2015-10-24 13:41:25.784038,494,499.2540648616631
2015-10-24 13:41:25.784192,499,499.38845827063142
2015-10-24 13:41:25.799646,505,499.52285167959974
2015-10-24 13:41:25.799825,542,499.65724508856817
2015-10-24 13:41:25.799980,615,499.7916384975365
2015-10-24 13:41:25.815741,701,499.92603190650482
2015-10-24 13:41:25.815924,785,500.06042531547314
2015-10-24 13:41:25.816076,814,500.19481872444157
2015-10-24 13:41:25.831676,781,500.3292121334099
2015-10-24 13:41:25.831861,686,500.46360554237822
2015-10-24 13:41:25.832024,497,500.59799895134654
2015-10-24 13:41:25.847586,373,500.68146475800665
2015-10-24 13:41:25.847766,369,500.77805734063543
2015-10-24 13:41:25.847921,398,500.87464992326431
2015-10-24 13:41:25.863658,435,500.9712425058932
2015-10-24 13:41:25.863881,469,501.06783508852197
2015-10-24 13:41:25.864036,485,501.16442767115086
2015-10-24 13:41:25.879466,488,501.26102025377975
2015-10-24 13:41:25.879661,490,501.35761283640852
2015-10-24 13:41:25.879800,492,501.45420541903741
2015-10-24 13:41:25.895699,492,501.55079800166629
2015-10-24 13:41:25.895987,496,501.64739058429507
2015-10-24 13:41:25.896149,501,501.74398316692395
2015-10-24 13:41:25.896302,501,501.84057574955284
2015-10-24 13:41:25.911795,504,501.93716833218161
2015-10-24 13:41:25.911974,509,502.0337609148105
2015-10-24 13:41:25.912130,513,502.13035349743939
2015-10-24 13:41:25.927789,516,502.22694608006816
2015-10-24 13:41:25.927968,518,502.32353866269705
2015-10-24 13:41:25.928123,523,502.42013124532593
2015-10-24 13:41:25.943789,526,502.51672382795471
2015-10-24 13:41:25.943963,528,502.61331641058359
2015-10-24 13:41:25.944115,533,502.70990899321248
2015-10-24 13:41:25.959735,538,502.80650157584125
2015-10-24 13:41:25.959916,544,502.90309415847014
2015-10-24 13:41:25.960065,550,502.99968674109903
2015-10-24 13:41:25.975772,557,503.0962793237278
2015-10-24 13:41:25.975950,565,503.19287190635669
2015-10-24 13:41:25.976101,574,503.28946448898557
2015-10-24 13:41:25.991494,581,503.38605707161435
2015-10-24 13:41:25.991589,589,503.48264965424323
2015-10-24 13:41:25.991670,598,503.57924223687212
2015-10-24 13:41:26.007744,605,503.67583481950089
2015-10-24 13:41:26.007927,608,503.78019197348283
2015-10-24 13:41:26.008085,611,503.75745573056508
2015-10-24 13:41:26.023723,612,503.71706671377444
2015-10-24 13:41:26.023900,609,503.67926588743489
2015-10-24 13:41:26.024054,605,503.64146506109546
2015-10-24 13:41:26.039691,599,503.60366423475591
2015-10-24 13:41:26.039871,591,503.56586340841648
2015-10-24 13:41:26.040026,580,503.52806258207693
2015-10-24 13:41:26.055683,568,503.49026175573738
2015-10-24 13:41:26.055869,556,503.45246092939794
2015-10-24 13:41:26.056021,541,503.4146601030584
2015-10-24 13:41:26.071658,523,503.37685927671885
2015-10-24 13:41:26.071841,506,503.33905845037941
2015-10-24 13:41:26.071996,493,503.30125762403986
2015-10-24 13:41:26.087662,482,503.2634567977002
2015-10-24 13:41:26.087846,470,503.22565597136077
2015-10-24 13:41:26.088000,461,503.18785514502122
2015-10-24 13:41:26.103641,456,503.15005431868167
2015-10-24 13:41:26.103886,451,503.11225349234223
2015-10-24 13:41:26.104065,447,503.07445266600268
2015-10-24 13:41:26.119541,449,503.03665183966314
2015-10-24 13:41:26.119793,451,502.99885101332359
2015-10-24 13:41:26.119950,450,502.96105018698415
2015-10-24 13:41:26.135548,448,502.9232493606446
2015-10-24 13:41:26.135794,445,502.88544853430506
2015-10-24 13:41:26.135950,447,502.84764770796562
2015-10-24 13:41:26.136099,448,502.80984688162607
2015-10-24 13:41:26.151714,450,502.77204605528652
2015-10-24 13:41:26.151891,452,502.73424522894697
2015-10-24 13:41:26.152045,455,502.69644440260754
2015-10-24 13:41:26.167718,457,502.65864357626799
2015-10-24 13:41:26.167893,457,502.62084274992844
2015-10-24 13:41:26.168044,459,502.58304192358901
2015-10-24 13:41:26.183567,464,502.54524109724946
2015-10-24 13:41:26.183740,467,502.56167446286759
2015-10-24 13:41:26.183890,467,502.61990874801552
2015-10-24 13:41:26.199682,469,502.64449655730039
2015-10-24 13:41:26.199856,473,502.66908436658514
2015-10-24 13:41:26.200008,474,502.69367217586989
2015-10-24 13:41:26.215512,475,502.71825998515465
2015-10-24 13:41:26.215710,475,502.7428477944394
2015-10-24 13:41:26.215849,475,502.76743560372415
2015-10-24 13:41:26.231715,476,502.79202341300891
2015-10-24 13:41:26.231895,476,502.81661122229366
2015-10-24 13:41:26.232052,478,502.84119903157853
2015-10-24 13:41:26.247637,478,502.86578684086328
2015-10-24 13:41:26.247814,477,502.89037465014803
2015-10-24 13:41:26.247967,477,502.91496245943279
2015-10-24 13:41:26.263768,479,502.93955026871754
2015-10-24 13:41:26.264039,479,502.96413807800229
2015-10-24 13:41:26.264208,475,502.98872588728705
2015-10-24 13:41:26.279702,473,503.0133136965718
2015-10-24 13:41:26.279879,474,503.03790150585667
2015-10-24 13:41:26.280033,474,503.06248931514142
2015-10-24 13:41:26.295523,474,503.08707712442617
2015-10-24 13:41:26.295804,474,503.11166493371093
2015-10-24 13:41:26.295936,473,503.13625274299568
2015-10-24 13:41:26.311546,473,503.16084055228043
2015-10-24 13:41:26.311725,473,503.1854283615653
2015-10-24 13:41:26.311872,476,503.21001617085005
2015-10-24 13:41:26.327554,478,503.23460398013481
2015-10-24 13:41:26.327737,480,503.25919178941967
2015-10-24 13:41:26.327892,481,503.28377959870443
2015-10-24 13:41:26.343615,481,503.30836740798918
2015-10-24 13:41:26.343874,482,503.33295521727393
2015-10-24 13:41:26.343996,483,503.35754302655869
2015-10-24 13:41:26.359428,485,503.38213083584344
2015-10-24 13:41:26.359673,486,503.40671864512831
2015-10-24 13:41:26.359827,481,503.48223405672138
2015-10-24 13:41:26.375437,479,503.54462269234568
2015-10-24 13:41:26.375687,483,503.60701132796999
2015-10-24 13:41:26.375840,490,503.6693999635944
2015-10-24 13:41:26.391427,492,503.7317885992187
2015-10-24 13:41:26.391674,492,503.794177234843
2015-10-24 13:41:26.391824,492,503.85656587046731
2015-10-24 13:41:26.391971,489,503.91895450609161
2015-10-24 13:41:26.407600,482,503.98134314171591
2015-10-24 13:41:26.407776,473,504.04373177734021
2015-10-24 13:41:26.407928,469,504.10612041296451
2015-10-24 13:41:26.423664,468,504.16850904858882
2015-10-24 13:41:26.423840,466,504.23089768421312
2015-10-24 13:41:26.423993,466,504.29328631983742
2015-10-24 13:41:26.439458,468,504.35567495546172
2015-10-24 13:41:26.439632,467,504.41806359108602
2015-10-24 13:41:26.439784,465,504.48045222671033
2015-10-24 13:41:26.455554,466,504.54284086233463
2015-10-24 13:41:26.455732,468,504.60522949795893
2015-10-24 13:41:26.455885,467,504.66761813358323
2015-10-24 13:41:26.471560,473,504.73000676920753
2015-10-24 13:41:26.471739,487,504.79239540483184
2015-10-24 13:41:26.471895,493,504.85478404045614
2015-10-24 13:41:26.487415,520,504.91717267608044
2015-10-24 13:41:26.487593,586,504.97956131170474
2015-10-24 13:41:26.487746,663,505.04194994732904
2015-10-24 13:41:26.503532,746,505.10433858295335
2015-10-24 13:41:26.503708,785,505.16672721857765
2015-10-24 13:41:26.503860,759,505.22911585420195
2015-10-24 13:41:26.519361,684,505.29150448982625
2015-10-24 13:41:26.519541,510,505.35389312545055
2015-10-24 13:41:26.519696,366,505.36017777786435
2015-10-24 13:41:26.535571,351,505.29230913011043
2015-10-24 13:41:26.535751,379,505.2244404823565
2015-10-24 13:41:26.535907,416,505.15657183460257
2015-10-24 13:41:26.551452,452,505.08870318684865
2015-10-24 13:41:26.551631,470,505.02083453909472
2015-10-24 13:41:26.551787,476,504.9529658913408
2015-10-24 13:41:26.567467,474,504.88509724358687
2015-10-24 13:41:26.567652,473,504.81722859583294
2015-10-24 13:41:26.567806,476,504.74935994807902
2015-10-24 13:41:26.583483,481,504.68149130032521
2015-10-24 13:41:26.583672,484,504.61362265257128
2015-10-24 13:41:26.583827,487,504.54575400481735
2015-10-24 13:41:26.599268,490,504.47788535706343
2015-10-24 13:41:26.599471,494,504.4100167093095
2015-10-24 13:41:26.599628,495,504.34214806155558
2015-10-24 13:41:26.615363,499,504.27427941380165
2015-10-24 13:41:26.615614,504,504.20641076604772
2015-10-24 13:41:26.615771,509,504.13854211829391
2015-10-24 13:41:26.631415,512,504.07067347053999
2015-10-24 13:41:26.631765,516,504.00280482278606
2015-10-24 13:41:26.631956,520,503.93493617503213
2015-10-24 13:41:26.632115,528,503.86706752727821
2015-10-24 13:41:26.647534,534,503.79919887952428
2015-10-24 13:41:26.647716,538,503.73133023177036
2015-10-24 13:41:26.647869,545,503.66346158401643
2015-10-24 13:41:26.663505,554,503.59559293626251
2015-10-24 13:41:26.663683,559,503.52772428850858
2015-10-24 13:41:26.663836,566,503.45985564075465
2015-10-24 13:41:26.679615,576,503.39198699300073
2015-10-24 13:41:26.679868,585,503.3241183452468
2015-10-24 13:41:26.680032,588,503.25624969749288
2015-10-24 13:41:26.695454,590,503.18838104973895
2015-10-24 13:41:26.695634,596,503.12051240198502
2015-10-24 13:41:26.695791,599,503.05264375423121
2015-10-24 13:41:26.711649,595,502.9305409145195
2015-10-24 13:41:26.711904,590,502.76663715527809
2015-10-24 13:41:26.712073,587,502.63637987189986
2015-10-24 13:41:26.727458,580,502.50612258852163
2015-10-24 13:41:26.727635,567,502.37586530514341
2015-10-24 13:41:26.727790,554,502.24560802176518
2015-10-24 13:41:26.743463,542,502.11535073838695
2015-10-24 13:41:26.743642,527,501.98509345500861
2015-10-24 13:41:26.743796,509,501.85483617163038
2015-10-24 13:41:26.759408,495,501.72457888825215
2015-10-24 13:41:26.759590,482,501.59432160487393
2015-10-24 13:41:26.759741,469,501.4640643214957
2015-10-24 13:41:26.775413,458,501.33380703811747
2015-10-24 13:41:26.775589,451,501.20354975473924
2015-10-24 13:41:26.775741,446,501.07329247136101
2015-10-24 13:41:26.791094,440,500.94303518798279
2015-10-24 13:41:26.791211,439,500.81277790460456
2015-10-24 13:41:26.791292,440,500.68252062122633
2015-10-24 13:41:26.807136,440,500.5522633378481
2015-10-24 13:41:26.807336,437,500.42200605446988
2015-10-24 13:41:26.807443,436,500.29174877109165
2015-10-24 13:41:26.823124,436,500.16149148771342
2015-10-24 13:41:26.823306,437,500.03123420433519
2015-10-24 13:41:26.823467,439,499.90097692095696
2015-10-24 13:41:26.838909,442,499.77071963757874
2015-10-24 13:41:26.838971,445,499.64046235420051
2015-10-24 13:41:26.839017,447,499.51020507082228
2015-10-24 13:41:26.854933,448,499.37994778744405
2015-10-24 13:41:26.855001,450,499.24969050406582
2015-10-24 13:41:26.855048,455,499.1194332206876
2015-10-24 13:41:26.870950,457,498.98917593730937
2015-10-24 13:41:26.871022,458,498.85891865393114
2015-10-24 13:41:26.871068,461,498.7286613705528
2015-10-24 13:41:26.871113,463,498.59840408717457
2015-10-24 13:41:26.887125,464,498.46038223244329
2015-10-24 13:41:26.887203,467,498.32018695523141
2015-10-24 13:41:26.887263,471,498.15669796396037
2015-10-24 13:41:26.903381,475,497.99320897268933
2015-10-24 13:41:26.903558,475,497.82971998141841
2015-10-24 13:41:26.903712,474,497.66623099014726
2015-10-24 13:41:26.919602,476,497.50274199887633
2015-10-24 13:41:26.919786,476,497.33925300760529
2015-10-24 13:41:26.919903,476,497.17576401633426
2015-10-24 13:41:26.935245,478,497.01227502506322
2015-10-24 13:41:26.935424,479,496.84878603379218
2015-10-24 13:41:26.935575,476,496.68529704252114
2015-10-24 13:41:26.951390,474,496.52180805125022
2015-10-24 13:41:26.951615,474,496.35831905997907
2015-10-24 13:41:26.951723,475,496.19483006870809
2015-10-24 13:41:26.967331,474,496.03134107743711
2015-10-24 13:41:26.967513,472,495.86785208616607
2015-10-24 13:41:26.967690,472,495.70436309489509
2015-10-24 13:41:26.983410,473,495.54087410362405
2015-10-24 13:41:26.983595,474,495.37738511235307
2015-10-24 13:41:26.983751,473,495.21389612108203
2015-10-24 13:41:26.999329,475,495.05040712981105
2015-10-24 13:41:26.999505,474,494.88691813853995
2015-10-24 13:41:26.999659,473,494.72342914726897
2015-10-24 13:41:27.015431,475,494.55994015599794
2015-10-24 13:41:27.015731,475,494.39645116472695
2015-10-24 13:41:27.015902,477,494.23296217345592
2015-10-24 13:41:27.031383,479,494.06947318218494
2015-10-24 13:41:27.031568,483,493.90598419091395
2015-10-24 13:41:27.031725,485,493.74249519964292
2015-10-24 13:41:27.047280,484,493.57900620837194
2015-10-24 13:41:27.047461,485,493.4716212003114
2015-10-24 13:41:27.047614,486,493.43838949241865
2015-10-24 13:41:27.063312,489,493.40515778452584
2015-10-24 13:41:27.063504,490,493.37192607663309
2015-10-24 13:41:27.063660,490,493.33869436874033
2015-10-24 13:41:27.079282,489,493.30546266084758
2015-10-24 13:41:27.079466,489,493.27223095295489
2015-10-24 13:41:27.079620,492,493.23899924506219
2015-10-24 13:41:27.095037,494,493.20576753716949
2015-10-24 13:41:27.095188,500,493.1725358292768
2015-10-24 13:41:27.095305,504,493.1393041213841
2015-10-24 13:41:27.110934,504,493.1060724134914
2015-10-24 13:41:27.111106,500,493.07284070559871
2015-10-24 13:41:27.111206,492,493.03960899770601
2015-10-24 13:41:27.126871,484,493.00637728981332
2015-10-24 13:41:27.127070,476,492.97314558192062
2015-10-24 13:41:27.127173,475,492.93991387402792
2015-10-24 13:41:27.127268,477,492.90668216613517
2015-10-24 13:41:27.143339,480,492.87345045824247
2015-10-24 13:41:27.143520,480,492.84021875034978
2015-10-24 13:41:27.143674,478,492.80698704245708
2015-10-24 13:41:27.159338,480,492.77375533456438
2015-10-24 13:41:27.159518,481,492.74052362667169
2015-10-24 13:41:27.159678,479,492.70729191877899
2015-10-24 13:41:27.175306,480,492.6740602108863
2015-10-24 13:41:27.175485,489,492.6408285029936
2015-10-24 13:41:27.175641,499,492.6075967951009
2015-10-24 13:41:27.191290,500,492.57436508720821
2015-10-24 13:41:27.191467,522,492.54113337931551
2015-10-24 13:41:27.191622,585,492.50790167142281
2015-10-24 13:41:27.207282,665,492.47466996353006
2015-10-24 13:41:27.207462,758,492.44143825563737
2015-10-24 13:41:27.207618,824,492.40820654774467
2015-10-24 13:41:27.223259,808,492.37497483985197
2015-10-24 13:41:27.223434,747,492.34174313195928
2015-10-24 13:41:27.223589,585,492.30851142406658
2015-10-24 13:41:27.239285,405,492.28951476365449
2015-10-24 13:41:27.239469,360,492.22483489803597
2015-10-24 13:41:27.239627,382,492.16015503241744
2015-10-24 13:41:27.254911,420,492.09547516679891
2015-10-24 13:41:27.255030,462,492.03079530118038
2015-10-24 13:41:27.255128,484,491.96611543556185
2015-10-24 13:41:27.271236,485,491.90143556994332
2015-10-24 13:41:27.271416,484,491.83675570432479
2015-10-24 13:41:27.271571,487,491.77207583870626
2015-10-24 13:41:27.287150,490,491.70739597308773
2015-10-24 13:41:27.287334,492,491.6427161074692
2015-10-24 13:41:27.287491,495,491.57803624185067
2015-10-24 13:41:27.303034,500,491.5133563762322
2015-10-24 13:41:27.303215,503,491.44867651061367
2015-10-24 13:41:27.303382,505,491.38399664499514
2015-10-24 13:41:27.319181,508,491.31931677937661
2015-10-24 13:41:27.319363,513,491.25463691375808
2015-10-24 13:41:27.319518,515,491.18995704813955
2015-10-24 13:41:27.335013,516,491.1252771825209
2015-10-24 13:41:27.335268,521,491.06059731690243
2015-10-24 13:41:27.335432,529,490.9959174512839
2015-10-24 13:41:27.351089,534,490.93123758566537
2015-10-24 13:41:27.351336,538,490.86655772004684
2015-10-24 13:41:27.351490,541,490.80187785442831
2015-10-24 13:41:27.367143,547,490.73719798880978
2015-10-24 13:41:27.367391,555,490.67251812319125
2015-10-24 13:41:27.367552,563,490.60783825757267
2015-10-24 13:41:27.367708,573,490.54315839195414
2015-10-24 13:41:27.383233,582,490.47847852633561
2015-10-24 13:41:27.383407,587,490.41379866071708
2015-10-24 13:41:27.383556,593,490.34911879509855
2015-10-24 13:41:27.399229,601,490.28443892948002
2015-10-24 13:41:27.399404,608,490.21975906386149
2015-10-24 13:41:27.399554,610,490.16284376959601
2015-10-24 13:41:27.415179,611,490.10810189781097
2015-10-24 13:41:27.415360,611,490.07665374008513
2015-10-24 13:41:27.415517,607,490.0452055823593
2015-10-24 13:41:27.431331,601,490.01375742463341
2015-10-24 13:41:27.431604,595,489.98230926690758
2015-10-24 13:41:27.431833,589,489.95086110918169
2015-10-24 13:41:27.447060,580,489.91941295145585
2015-10-24 13:41:27.447237,564,489.88796479372996
2015-10-24 13:41:27.447392,547,489.85651663600413
2015-10-24 13:41:27.463268,531,489.82506847827824
2015-10-24 13:41:27.463447,516,489.79362032055241
2015-10-24 13:41:27.463599,502,489.76217216282652
2015-10-24 13:41:27.479158,488,489.73072400510068
2015-10-24 13:41:27.479335,477,489.69927584737479
2015-10-24 13:41:27.479490,466,489.66782768964896
2015-10-24 13:41:27.495155,459,489.63637953192307
2015-10-24 13:41:27.495333,455,489.60493137419724
2015-10-24 13:41:27.495486,454,489.57348321647135
2015-10-24 13:41:27.510934,451,489.54203505874551
2015-10-24 13:41:27.511059,449,489.51058690101962
2015-10-24 13:41:27.511158,449,489.47913874329379
2015-10-24 13:41:27.527106,450,489.4476905855679
2015-10-24 13:41:27.527293,450,489.41624242784206
2015-10-24 13:41:27.527447,450,489.38479427011617
2015-10-24 13:41:27.543094,449,489.35334611239034
2015-10-24 13:41:27.543277,451,489.32189795466445
2015-10-24 13:41:27.543431,453,489.29044979693862
2015-10-24 13:41:27.559106,453,489.25900163921273
2015-10-24 13:41:27.559290,456,489.22755348148689
2015-10-24 13:41:27.559443,458,489.196105323761
2015-10-24 13:41:27.575045,460,489.18991358320409
2015-10-24 13:41:27.575295,463,489.36308672839482
2015-10-24 13:41:27.575453,467,489.59867340486676
2015-10-24 13:41:27.590985,468,489.82908370043657
2015-10-24 13:41:27.591234,467,490.05949399600649
2015-10-24 13:41:27.591387,470,490.28990429157636
2015-10-24 13:41:27.607048,474,490.52031458714617
2015-10-24 13:41:27.607297,473,490.7507248827161
2015-10-24 13:41:27.607457,472,490.98113517828597
2015-10-24 13:41:27.607613,475,491.21154547385584
2015-10-24 13:41:27.623147,480,491.4419557694257
2015-10-24 13:41:27.623326,481,491.67236606499557
2015-10-24 13:41:27.623482,480,491.90277636056544
2015-10-24 13:41:27.639146,481,492.13318665613536
2015-10-24 13:41:27.639321,482,492.36359695170518
2015-10-24 13:41:27.639475,481,492.59400724727504
2015-10-24 13:41:27.655166,480,492.82441754284497
2015-10-24 13:41:27.655344,481,493.05482783841484
2015-10-24 13:41:27.655497,482,493.28523813398465
2015-10-24 13:41:27.671103,479,493.51564842955457
2015-10-24 13:41:27.671280,480,493.74605872512444
2015-10-24 13:41:27.671435,481,493.97646902069431
2015-10-24 13:41:27.687107,481,494.20687931626412
2015-10-24 13:41:27.687284,479,494.43728961183405
2015-10-24 13:41:27.687435,478,494.66769990740391
2015-10-24 13:41:27.703106,480,494.89811020297384
2015-10-24 13:41:27.703283,478,495.12852049854365
2015-10-24 13:41:27.703437,476,495.35893079411352
2015-10-24 13:41:27.718932,478,495.58934108968344
2015-10-24 13:41:27.719112,482,495.81975138525331
2015-10-24 13:41:27.719266,481,496.05016168082312
2015-10-24 13:41:27.735059,481,496.28057197639305
2015-10-24 13:41:27.735235,481,496.51098227196292
2015-10-24 13:41:27.735391,481,496.74139256753278
2015-10-24 13:41:27.751051,480,496.97180286310265
2015-10-24 13:41:27.751233,480,497.20221315867241
2015-10-24 13:41:27.751389,482,497.41838840676166
2015-10-24 13:41:27.766997,484,497.68024686005742
2015-10-24 13:41:27.767186,483,497.94210531335318
2015-10-24 13:41:27.767339,486,498.20396376664883
2015-10-24 13:41:27.783030,489,498.46582221994458
2015-10-24 13:41:27.783217,491,498.72768067324034
2015-10-24 13:41:27.783369,490,498.98953912653599
2015-10-24 13:41:27.799118,489,499.25139757983175
2015-10-24 13:41:27.799449,491,499.5132560331275
2015-10-24 13:41:27.799617,493,499.77511448642315
2015-10-24 13:41:27.814911,490,500.03697293971891
2015-10-24 13:41:27.815164,492,500.29883139301455
2015-10-24 13:41:27.815321,497,500.56068984631031
2015-10-24 13:41:27.830912,501,500.82254829960607
2015-10-24 13:41:27.831164,500,501.08440675290171
2015-10-24 13:41:27.831320,501,501.34626520619747
2015-10-24 13:41:27.847007,505,501.60812365949323
2015-10-24 13:41:27.847347,503,501.86998211278888
2015-10-24 13:41:27.847543,496,502.13184056608463
2015-10-24 13:41:27.862970,491,502.39369901938039
2015-10-24 13:41:27.863235,485,502.65555747267604
2015-10-24 13:41:27.863399,482,502.9174159259718
2015-10-24 13:41:27.863556,478,503.17927437926755
2015-10-24 13:41:27.879195,479,503.4411328325632
2015-10-24 13:41:27.879460,480,503.70299128585896
2015-10-24 13:41:27.879627,481,503.9648497391546
2015-10-24 13:41:27.895159,482,504.22670819245036
2015-10-24 13:41:27.895336,482,504.48856664574612
2015-10-24 13:41:27.895513,482,504.75042509904176
2015-10-24 13:41:27.911190,479,505.01228355233752
2015-10-24 13:41:27.911370,482,505.27414200563328
2015-10-24 13:41:27.911521,496,505.53600045892892
2015-10-24 13:41:27.927140,499,505.79785891222468
2015-10-24 13:41:27.927410,513,506.05971736552044
2015-10-24 13:41:27.927572,570,506.32157581881609
2015-10-24 13:41:27.943035,658,506.58343427211173
2015-10-24 13:41:27.943219,753,506.84529272540749
2015-10-24 13:41:27.943382,826,507.10715117870313
2015-10-24 13:41:27.959039,821,507.36900963199889
2015-10-24 13:41:27.959222,769,507.63086808529454
2015-10-24 13:41:27.959382,620,507.8927265385903
2015-10-24 13:41:27.975004,426,508.15458499188594
2015-10-24 13:41:27.975188,361,508.20863336012985
2015-10-24 13:41:27.975348,381,508.29020447988
2015-10-24 13:41:27.990998,415,508.37177559963015
2015-10-24 13:41:27.991183,455,508.45334671938031
2015-10-24 13:41:27.991341,481,508.53491783913046
2015-10-24 13:41:28.007032,487,508.6164889588805
2015-10-24 13:41:28.007210,484,508.69806007863065
2015-10-24 13:41:28.007366,485,508.7796311983808
2015-10-24 13:41:28.023057,489,508.86120231813095
2015-10-24 13:41:28.023242,493,508.9427734378811
2015-10-24 13:41:28.023400,495,509.02434455763114
2015-10-24 13:41:28.039011,497,509.10591567738129
2015-10-24 13:41:28.039195,498,509.18748679713144
2015-10-24 13:41:28.039373,501,509.26905791688159
2015-10-24 13:41:28.054990,505,509.35062903663174
2015-10-24 13:41:28.055180,510,509.4322001563819
2015-10-24 13:41:28.055331,515,509.51377127613205
2015-10-24 13:41:28.070931,516,509.5953423958822
2015-10-24 13:41:28.071178,519,509.67691351563235
2015-10-24 13:41:28.071331,525,509.7584846353825
2015-10-24 13:41:28.086885,531,509.84005575513265
2015-10-24 13:41:28.087131,533,509.9216268748828
2015-10-24 13:41:28.087288,536,509.97794157746409
2015-10-24 13:41:28.102771,543,509.85489139429762
2015-10-24 13:41:28.103026,552,509.66942767984995
2015-10-24 13:41:28.103181,559,509.48914034630434
2015-10-24 13:41:28.103336,566,509.30885301275885
2015-10-24 13:41:28.119086,576,509.12856567921324
2015-10-24 13:41:28.119263,585,508.94827834566775
2015-10-24 13:41:28.119413,589,508.76799101212214
2015-10-24 13:41:28.134869,595,508.58770367857653
2015-10-24 13:41:28.135043,603,508.40741634503104
2015-10-24 13:41:28.135195,607,508.22712901148543
2015-10-24 13:41:28.151052,607,508.04684167793982
2015-10-24 13:41:28.151228,607,507.86655434439433
2015-10-24 13:41:28.151381,606,507.68626701084872
2015-10-24 13:41:28.166960,602,507.50597967730312
2015-10-24 13:41:28.167146,595,507.32569234375762
2015-10-24 13:41:28.167302,587,507.14540501021202
2015-10-24 13:41:28.182891,577,506.96511767666652
2015-10-24 13:41:28.183070,564,506.78483034312092
2015-10-24 13:41:28.183223,550,506.60454300957531
2015-10-24 13:41:28.198919,535,506.42425567602982
2015-10-24 13:41:28.199089,519,506.24396834248421
2015-10-24 13:41:28.199242,502,506.0636810089386
2015-10-24 13:41:28.214725,487,505.88339367539311
2015-10-24 13:41:28.214905,477,505.7031063418475
2015-10-24 13:41:28.215057,470,505.52281900830189
2015-10-24 13:41:28.230841,462,505.3425316747564
2015-10-24 13:41:28.231016,453,505.16224434121079
2015-10-24 13:41:28.231169,449,504.98195700766519
2015-10-24 13:41:28.246833,449,504.80166967411969
2015-10-24 13:41:28.247005,448,504.62138234057409
2015-10-24 13:41:28.247154,446,504.44109500702859
2015-10-24 13:41:28.262924,446,504.26080767348299
2015-10-24 13:41:28.263200,444,504.08052033993738
2015-10-24 13:41:28.263386,442,503.90023300639189
2015-10-24 13:41:28.278871,443,503.71994567284628
2015-10-24 13:41:28.279060,449,503.53965833930067
2015-10-24 13:41:28.279218,451,503.49104019187268
2015-10-24 13:41:28.294882,448,503.50991904477098
2015-10-24 13:41:28.295149,449,503.52103332631623
2015-10-24 13:41:28.295341,455,503.53214760786148
2015-10-24 13:41:28.310698,459,503.54326188940672
2015-10-24 13:41:28.310951,460,503.55437617095197
2015-10-24 13:41:28.311108,461,503.56549045249722
2015-10-24 13:41:28.326698,464,503.57660473404235
2015-10-24 13:41:28.326946,464,503.5877190155876
2015-10-24 13:41:28.327102,465,503.59883329713284
2015-10-24 13:41:28.342601,468,503.60994757867809
2015-10-24 13:41:28.342799,470,503.62106186022334
2015-10-24 13:41:28.342953,471,503.63217614176858
2015-10-24 13:41:28.343101,473,503.64329042331383
2015-10-24 13:41:28.358873,474,503.65440470485908
2015-10-24 13:41:28.359046,472,503.66551898640432
2015-10-24 13:41:28.359196,472,503.67663326794957
2015-10-24 13:41:28.374833,476,503.68774754949482
2015-10-24 13:41:28.375010,479,503.69886183104006
2015-10-24 13:41:28.375174,480,503.70997611258531
2015-10-24 13:41:28.390839,478,503.72109039413056
2015-10-24 13:41:28.391013,476,503.73220467567592
2015-10-24 13:41:28.391161,477,503.74331895722116
2015-10-24 13:41:28.406928,477,503.7544332387663
2015-10-24 13:41:28.407104,475,503.76554752031154
2015-10-24 13:41:28.407257,474,503.7766618018569
2015-10-24 13:41:28.422816,476,503.78777608340215
2015-10-24 13:41:28.422991,477,503.7988903649474
2015-10-24 13:41:28.423146,475,503.81000464649253
2015-10-24 13:41:28.438875,478,503.82111892803778
2015-10-24 13:41:28.439056,479,503.83223320958302
2015-10-24 13:41:28.439206,476,503.84334749112827
2015-10-24 13:41:28.454797,475,503.85446177267352
2015-10-24 13:41:28.454975,476,503.86557605421876
2015-10-24 13:41:28.455129,477,503.87669033576401
2015-10-24 13:41:28.470797,476,503.88780461730926
2015-10-24 13:41:28.470974,476,503.89891889885439
2015-10-24 13:41:28.471126,479,503.91003318039964
2015-10-24 13:41:28.486794,479,503.92114746194488
2015-10-24 13:41:28.486972,478,503.93226174349002
2015-10-24 13:41:28.487124,479,503.94337602503526
2015-10-24 13:41:28.502745,482,504.16230039163224
2015-10-24 13:41:28.502929,482,504.3537020067231
2015-10-24 13:41:28.503080,482,504.54510362181384
2015-10-24 13:41:28.518746,486,504.73650523690458
2015-10-24 13:41:28.518928,490,504.92790685199532
2015-10-24 13:41:28.519082,492,505.11930846708617
2015-10-24 13:41:28.534647,493,505.31071008217691
2015-10-24 13:41:28.534828,492,505.50211169726765
2015-10-24 13:41:28.534981,493,505.69351331235839
2015-10-24 13:41:28.550553,495,505.88491492744924
2015-10-24 13:41:28.550753,493,506.07631654253987
2015-10-24 13:41:28.550909,493,506.26771815763072
2015-10-24 13:41:28.566652,499,506.45911977272146
2015-10-24 13:41:28.566901,502,506.6505213878122
2015-10-24 13:41:28.567056,503,506.84192300290294
2015-10-24 13:41:28.582623,505,507.0333246179938
2015-10-24 13:41:28.582869,509,507.22472623308454
2015-10-24 13:41:28.583023,506,507.41612784817528
2015-10-24 13:41:28.583175,498,507.60752946326602
2015-10-24 13:41:28.598647,492,507.79893107835687
2015-10-24 13:41:28.598823,487,507.9903326934475
2015-10-24 13:41:28.598976,483,508.18173430853835
2015-10-24 13:41:28.614802,481,508.37313592362909
2015-10-24 13:41:28.614983,483,508.56453753871983
2015-10-24 13:41:28.615139,487,508.75593915381069
2015-10-24 13:41:28.630614,485,508.94734076890143
2015-10-24 13:41:28.630792,483,509.13874238399217
2015-10-24 13:41:28.630948,484,509.33014399908291
2015-10-24 13:41:28.646619,486,509.52154561417365
2015-10-24 13:41:28.646824,487,509.71294722926439
2015-10-24 13:41:28.646958,488,509.90434884435513
2015-10-24 13:41:28.662740,498,510.09575045944587
2015-10-24 13:41:28.662914,503,510.28715207453672
2015-10-24 13:41:28.663069,512,510.47855368962746
2015-10-24 13:41:28.678573,555,510.6699553047182
2015-10-24 13:41:28.678750,634,510.86135691980894
2015-10-24 13:41:28.678902,720,511.05275853489979
2015-10-24 13:41:28.694804,808,511.24416014999042
2015-10-24 13:41:28.695077,832,511.43556176508127
2015-10-24 13:41:28.695235,796,511.62696338017201
2015-10-24 13:41:28.710748,680,511.81836499526275
2015-10-24 13:41:28.711055,476,512.00976661035349
2015-10-24 13:41:28.711224,369,512.03881240134217
2015-10-24 13:41:28.726668,378,512.10513311395687
2015-10-24 13:41:28.726885,409,512.17145382657145
2015-10-24 13:41:28.727063,446,512.23777453918615
2015-10-24 13:41:28.742700,478,512.30409525180085
2015-10-24 13:41:28.742882,491,512.37041596441554
2015-10-24 13:41:28.743040,490,512.43673667703024
2015-10-24 13:41:28.758642,489,512.50305738964482
2015-10-24 13:41:28.758826,491,512.56937810225952
2015-10-24 13:41:28.758979,492,512.63569881487422
2015-10-24 13:41:28.774642,493,512.70201952748891
2015-10-24 13:41:28.774825,496,512.7683402401035
2015-10-24 13:41:28.774979,503,512.8346609527182
2015-10-24 13:41:28.790698,507,512.90098166533278
2015-10-24 13:41:28.790883,510,512.96730237794748
2015-10-24 13:41:28.791037,514,513.03362309056206
2015-10-24 13:41:28.806520,517,513.09994380317676
2015-10-24 13:41:28.806771,519,513.03459532967383
2015-10-24 13:41:28.806927,524,512.90174985584463
2015-10-24 13:41:28.822524,529,512.77666895336858
2015-10-24 13:41:28.822772,533,512.65158805089243
2015-10-24 13:41:28.822927,535,512.52650714841639
2015-10-24 13:41:28.838498,538,512.40142624594023
2015-10-24 13:41:28.838745,546,512.27634534346407
2015-10-24 13:41:28.838895,556,512.15126444098803
2015-10-24 13:41:28.839039,563,512.02618353851187
2015-10-24 13:41:28.854672,566,511.90110263603583
2015-10-24 13:41:28.854850,577,511.77602173355967
2015-10-24 13:41:28.854998,586,511.65094083108352
2015-10-24 13:41:28.870667,592,511.52585992860747
2015-10-24 13:41:28.870847,599,511.40077902613132
2015-10-24 13:41:28.871000,608,511.27569812365527
2015-10-24 13:41:28.886665,615,511.15061722117912
2015-10-24 13:41:28.886843,616,511.02553631870296
2015-10-24 13:41:28.886997,615,510.90045541622692
2015-10-24 13:41:28.902617,613,510.77537451375076
2015-10-24 13:41:28.902790,608,510.65029361127472
2015-10-24 13:41:28.902941,601,510.52521270879856
2015-10-24 13:41:28.918715,594,510.40013180632241
2015-10-24 13:41:28.918894,588,510.27505090384636
2015-10-24 13:41:28.919046,578,510.14997000137032
2015-10-24 13:41:28.934629,562,510.02488909889428
2015-10-24 13:41:28.934808,545,509.89980819641823
2015-10-24 13:41:28.934965,531,509.77472729394231
2015-10-24 13:41:28.950627,516,509.64964639146626
2015-10-24 13:41:28.950824,500,509.52456548899022
2015-10-24 13:41:28.950981,489,509.39948458651418
2015-10-24 13:41:28.966569,479,509.27440368403813
2015-10-24 13:41:28.966748,468,509.14932278156209
2015-10-24 13:41:28.966900,461,509.02424187908605
2015-10-24 13:41:28.982569,460,508.89916097661001
2015-10-24 13:41:28.982747,458,508.77408007413396
2015-10-24 13:41:28.982898,455,508.64899917165792
2015-10-24 13:41:28.998565,452,508.52391826918188
2015-10-24 13:41:28.998753,453,508.39883736670583
2015-10-24 13:41:28.998907,453,508.27375646422979
2015-10-24 13:41:29.014400,453,508.14867556175375
2015-10-24 13:41:29.014581,453,508.02359465927771
2015-10-24 13:41:29.014731,454,507.98292690691665
2015-10-24 13:41:29.030516,454,507.99725486625425
2015-10-24 13:41:29.030700,456,507.97664225450319
2015-10-24 13:41:29.030855,459,507.95602964275201
2015-10-24 13:41:29.046320,461,507.93541703100084
2015-10-24 13:41:29.046516,463,507.91480441924978
2015-10-24 13:41:29.046668,463,507.8941918074986
2015-10-24 13:41:29.062379,466,507.87357919574754
2015-10-24 13:41:29.062628,470,507.85296658399636
2015-10-24 13:41:29.062788,473,507.83235397224519
2015-10-24 13:41:29.078485,475,507.81174136049412
2015-10-24 13:41:29.078743,477,507.79112874874295
2015-10-24 13:41:29.078897,478,507.77051613699189
2015-10-24 13:41:29.079048,478,507.74990352524071
2015-10-24 13:41:29.094756,478,507.72929091348954
2015-10-24 13:41:29.095005,480,507.70867830173836
2015-10-24 13:41:29.095164,482,507.68806568998718
2015-10-24 13:41:29.110586,480,507.66745307823601
2015-10-24 13:41:29.110767,480,507.64684046648483
2015-10-24 13:41:29.110922,484,507.62622785473366
2015-10-24 13:41:29.126572,486,507.60561524298248
2015-10-24 13:41:29.126749,484,507.5850026312313
2015-10-24 13:41:29.126900,481,507.56439001948013
2015-10-24 13:41:29.142518,483,507.54377740772895
2015-10-24 13:41:29.142697,484,507.52316479597789
2015-10-24 13:41:29.142850,484,507.5025521842266
2015-10-24 13:41:29.158515,484,507.48193957247554
2015-10-24 13:41:29.158693,483,507.46132696072436
2015-10-24 13:41:29.158844,482,507.44071434897319
2015-10-24 13:41:29.174527,480,507.42010173722201
2015-10-24 13:41:29.174705,481,507.39948912547084
2015-10-24 13:41:29.174856,482,507.37887651371966
2015-10-24 13:41:29.190342,481,507.35826390196848
2015-10-24 13:41:29.190468,479,507.33765129021742
2015-10-24 13:41:29.190565,480,507.31703867846613
2015-10-24 13:41:29.206468,484,507.29642606671507
2015-10-24 13:41:29.206648,487,507.2758134549639
2015-10-24 13:41:29.206803,490,507.25520084321261
2015-10-24 13:41:29.222452,494,507.23458823146143
2015-10-24 13:41:29.222630,497,507.21397561971014
2015-10-24 13:41:29.222784,495,507.19336300795896
2015-10-24 13:41:29.238421,493,507.17275039620768
2015-10-24 13:41:29.238610,495,507.31449360855856
2015-10-24 13:41:29.238763,498,507.41896189928343
2015-10-24 13:41:29.254472,496,507.5234301900083
2015-10-24 13:41:29.254658,494,507.62789848073317
2015-10-24 13:41:29.254814,498,507.73236677145803
2015-10-24 13:41:29.270397,503,507.8368350621829
2015-10-24 13:41:29.270583,506,507.94130335290765
2015-10-24 13:41:29.270737,511,508.04577164363252
2015-10-24 13:41:29.286390,513,508.15023993435739
2015-10-24 13:41:29.286577,508,508.25470822508214
2015-10-24 13:41:29.286728,500,508.35917651580701
2015-10-24 13:41:29.302302,492,508.46364480653187
2015-10-24 13:41:29.302549,486,508.56811309725674
2015-10-24 13:41:29.302703,484,508.6725813879815
2015-10-24 13:41:29.318300,484,508.77575558348087
2015-10-24 13:41:29.318551,488,508.87504749330367
2015-10-24 13:41:29.318804,489,508.97433940312646
2015-10-24 13:41:29.334271,488,509.07363131294915
2015-10-24 13:41:29.334519,487,509.17292322277194
2015-10-24 13:41:29.334672,489,509.27221513259474
2015-10-24 13:41:29.334822,489,509.37150704241753
2015-10-24 13:41:29.350297,486,509.47079895224033
2015-10-24 13:41:29.350474,491,509.57009086206313
2015-10-24 13:41:29.350627,507,509.66938277188592
2015-10-24 13:41:29.366445,510,509.76867468170872
2015-10-24 13:41:29.366620,526,509.86796659153151
2015-10-24 13:41:29.366774,581,509.96725850135431
2015-10-24 13:41:29.382296,653,510.0665504111771
2015-10-24 13:41:29.382475,735,510.1658423209999
2015-10-24 13:41:29.382629,791,510.2651342308227
2015-10-24 13:41:29.398395,780,510.36442614064549
2015-10-24 13:41:29.398572,734,510.46371805046829
2015-10-24 13:41:29.398728,589,510.56300996029108
2015-10-24 13:41:29.414383,412,510.7063011077812
2015-10-24 13:41:29.414559,366,510.69421458712418
2015-10-24 13:41:29.414712,388,510.70930406620278
2015-10-24 13:41:29.430554,419,510.72439354528137
2015-10-24 13:41:29.430841,456,510.73948302435997
2015-10-24 13:41:29.431010,485,510.75457250343857
2015-10-24 13:41:29.446370,495,510.76966198251716
2015-10-24 13:41:29.446548,490,510.78475146159576
2015-10-24 13:41:29.446706,489,510.79984094067436
2015-10-24 13:41:29.462486,493,510.81493041975307
2015-10-24 13:41:29.462744,497,510.83001989883167
2015-10-24 13:41:29.462961,498,510.84510937791026
2015-10-24 13:41:29.478349,498,510.86019885698897
2015-10-24 13:41:29.478531,503,510.87528833606757
2015-10-24 13:41:29.478685,509,510.89037781514617
2015-10-24 13:41:29.494309,511,510.90546729422476
2015-10-24 13:41:29.494494,513,510.92055677330336
2015-10-24 13:41:29.494645,516,510.93564625238196
2015-10-24 13:41:29.510571,520,510.95073573146067
2015-10-24 13:41:29.511155,523,510.96582521053926
2015-10-24 13:41:29.511546,527,510.98091468961786
2015-10-24 13:41:29.526290,532,510.99600416869657
2015-10-24 13:41:29.526475,537,511.01109364777528
2015-10-24 13:41:29.526629,539,511.02618312685388
2015-10-24 13:41:29.542192,544,511.04127260593259
2015-10-24 13:41:29.542435,551,510.97194893489632
2015-10-24 13:41:29.542587,558,510.84762955216138
2015-10-24 13:41:29.558242,564,510.75825074051511
2015-10-24 13:41:29.558496,572,510.66887192886895
2015-10-24 13:41:29.558654,583,510.57949311722268
2015-10-24 13:41:29.574200,591,510.49011430557653
2015-10-24 13:41:29.574447,595,510.40073549393037
2015-10-24 13:41:29.574602,600,510.3113566822841
2015-10-24 13:41:29.574757,602,510.22197787063794
2015-10-24 13:41:29.590417,604,510.13259905899179
2015-10-24 13:41:29.590592,601,510.04322024734552
2015-10-24 13:41:29.590746,598,509.95384143569936
2015-10-24 13:41:29.606378,594,509.86446262405309
2015-10-24 13:41:29.606555,587,509.77508381240693
2015-10-24 13:41:29.606713,579,509.68570500076078
2015-10-24 13:41:29.622336,569,509.59632618911462
2015-10-24 13:41:29.622511,555,509.50694737746846
2015-10-24 13:41:29.622660,535,509.41756856582231
2015-10-24 13:41:29.638323,517,509.32818975417615
2015-10-24 13:41:29.638497,502,509.23881094252999
2015-10-24 13:41:29.638646,485,509.14943213088372
2015-10-24 13:41:29.654292,472,509.06005331923757
2015-10-24 13:41:29.654467,461,508.97067450759141
2015-10-24 13:41:29.654619,452,508.88129569594525
2015-10-24 13:41:29.670299,446,508.7919168842991
2015-10-24 13:41:29.670478,442,508.70253807265294
2015-10-24 13:41:29.670632,440,508.61315926100679
2015-10-24 13:41:29.686129,439,508.52378044936063
2015-10-24 13:41:29.686309,438,508.43440163771447
2015-10-24 13:41:29.686464,436,508.3450228260682
2015-10-24 13:41:29.702300,435,508.25564401442205
2015-10-24 13:41:29.702480,435,508.16626520277589
2015-10-24 13:41:29.702637,434,508.07688639112973
2015-10-24 13:41:29.718122,435,507.98750757948346
2015-10-24 13:41:29.718301,437,507.89812876783731
2015-10-24 13:41:29.718453,436,507.80874995619115
2015-10-24 13:41:29.734219,437,507.71937114454499
2015-10-24 13:41:29.734401,440,507.62999233289872
2015-10-24 13:41:29.734552,442,507.54061352125257
2015-10-24 13:41:29.750268,443,507.45123470960641
2015-10-24 13:41:29.750456,445,507.36185589796014
2015-10-24 13:41:29.750638,450,507.27247708631398
2015-10-24 13:41:29.766079,454,507.25362312907271
2015-10-24 13:41:29.766265,454,507.36160872881737
2015-10-24 13:41:29.766425,455,507.4672599780248
2015-10-24 13:41:29.782164,457,507.57291122723223
2015-10-24 13:41:29.782374,459,507.67856247643965
2015-10-24 13:41:29.782534,460,507.78421372564708
2015-10-24 13:41:29.798213,461,507.88986497485439
2015-10-24 13:41:29.798605,463,507.99551622406182
2015-10-24 13:41:29.798804,465,508.10116747326924
2015-10-24 13:41:29.814177,464,508.20681872247678
2015-10-24 13:41:29.814536,461,508.3124699716841
2015-10-24 13:41:29.814703,461,508.41812122089152
2015-10-24 13:41:29.814880,462,508.52377247009895
2015-10-24 13:41:29.830263,463,508.62942371930637
2015-10-24 13:41:29.830436,462,508.73636906373929
2015-10-24 13:41:29.830584,464,508.84719669384867
2015-10-24 13:41:29.846247,465,508.95802432395817
2015-10-24 13:41:29.846422,461,509.06885195406767
2015-10-24 13:41:29.846575,460,509.17967958417705
2015-10-24 13:41:29.862245,463,509.29050721428655
2015-10-24 13:41:29.862423,464,509.40133484439593
2015-10-24 13:41:29.862577,460,509.51216247450543
2015-10-24 13:41:29.878222,461,509.62299010461481
2015-10-24 13:41:29.878400,463,509.73381773472431
2015-10-24 13:41:29.878555,463,509.84464536483381
2015-10-24 13:41:29.894221,462,509.95547299494319
2015-10-24 13:41:29.894399,461,510.06630062505269
2015-10-24 13:41:29.894553,460,510.17712825516219
2015-10-24 13:41:29.910221,462,510.28795588527157
2015-10-24 13:41:29.910396,462,510.39878351538107
2015-10-24 13:41:29.910548,467,510.50961114549045
2015-10-24 13:41:29.926165,472,510.62043877559995
2015-10-24 13:41:29.926348,469,510.73126640570945
2015-10-24 13:41:29.926502,470,510.79809479815151
2015-10-24 13:41:29.942237,475,511.02030085874082
2015-10-24 13:41:29.942424,475,511.21533091959452
2015-10-24 13:41:29.942611,476,511.4103609804481
2015-10-24 13:41:29.958175,478,511.60539104130169
2015-10-24 13:41:29.958355,479,511.80042110215527
2015-10-24 13:41:29.958509,479,511.99545116300885
2015-10-24 13:41:29.974143,479,512.19048122386232
2015-10-24 13:41:29.974329,483,512.3855112847159
2015-10-24 13:41:29.974524,488,512.58054134556937
2015-10-24 13:41:29.990142,491,512.77557140642296
2015-10-24 13:41:29.990327,493,512.97060146727642
2015-10-24 13:41:29.990479,490,513.16563152813001
2015-10-24 13:41:30.006114,483,513.36066158898348
2015-10-24 13:41:30.006299,473,513.55569164983706
2015-10-24 13:41:30.006453,466,513.75072171069053
2015-10-24 13:41:30.022113,467,513.94575177154411
2015-10-24 13:41:30.022301,470,514.14078183239758
2015-10-24 13:41:30.022456,471,514.33581189325116
2015-10-24 13:41:30.038024,470,514.53084195410463
2015-10-24 13:41:30.038273,470,514.72587201495833
2015-10-24 13:41:30.038426,474,514.92090207581168
2015-10-24 13:41:30.054031,475,515.11593213666538
2015-10-24 13:41:30.054277,473,515.31096219751885
2015-10-24 13:41:30.054434,474,515.50599225837243
2015-10-24 13:41:30.070071,479,515.7010223192259
2015-10-24 13:41:30.070317,489,515.89605238007948
2015-10-24 13:41:30.070499,489,516.09108244093295
2015-10-24 13:41:30.070656,510,516.28611250178653
2015-10-24 13:41:30.086170,574,516.48114256264
2015-10-24 13:41:30.086349,654,516.67617262349358
2015-10-24 13:41:30.086504,747,516.87120268434705
2015-10-24 13:41:30.102021,815,517.06623274520064
2015-10-24 13:41:30.102194,798,517.26126280605422
2015-10-24 13:41:30.102346,742,517.45629286690769
2015-10-24 13:41:30.118126,589,517.65132292776127
2015-10-24 13:41:30.118300,410,517.85092877783245
2015-10-24 13:41:30.118454,358,517.78114054751177
2015-10-24 13:41:30.133946,381,517.72413234138935
2015-10-24 13:41:30.134118,416,517.66712413526693
2015-10-24 13:41:30.134272,456,517.6101159291444
2015-10-24 13:41:30.150078,479,517.55310772302198
2015-10-24 13:41:30.150255,483,517.49609951689956
2015-10-24 13:41:30.150420,482,517.43909131077714
2015-10-24 13:41:30.166085,482,517.38208310465461
2015-10-24 13:41:30.166261,483,517.32507489853219
2015-10-24 13:41:30.166411,484,517.26806669240977
2015-10-24 13:41:30.181911,488,517.21105848628736
2015-10-24 13:41:30.182086,493,517.15405028016482
2015-10-24 13:41:30.182241,495,517.09704207404241
2015-10-24 13:41:30.198096,497,517.04003386791999
2015-10-24 13:41:30.198281,499,516.98302566179746
2015-10-24 13:41:30.198463,503,516.92601745567504
2015-10-24 13:41:30.213998,507,516.86900924955262
2015-10-24 13:41:30.214177,511,516.8120010434302
2015-10-24 13:41:30.214331,518,516.75499283730767
2015-10-24 13:41:30.230065,523,516.69798463118525
2015-10-24 13:41:30.230247,526,516.64097642506283
2015-10-24 13:41:30.230398,530,516.58396821894041
2015-10-24 13:41:30.246026,537,516.52696001281788
2015-10-24 13:41:30.246218,541,516.46995180669546
2015-10-24 13:41:30.246375,547,516.41294360057316
2015-10-24 13:41:30.262107,556,516.35593539445063
2015-10-24 13:41:30.262383,565,516.29892718832821
2015-10-24 13:41:30.262566,571,516.24191898220579
2015-10-24 13:41:30.277881,576,516.18491077608337
2015-10-24 13:41:30.278135,585,516.12790256996084
2015-10-24 13:41:30.278295,592,516.00036950943354
2015-10-24 13:41:30.293974,597,515.74599689192019
2015-10-24 13:41:30.294318,600,515.49395862494418
2015-10-24 13:41:30.294517,602,515.24192035796818
2015-10-24 13:41:30.309949,603,514.98988209099218
2015-10-24 13:41:30.310218,601,514.73784382401618
2015-10-24 13:41:30.310375,598,514.48580555704018
2015-10-24 13:41:30.310528,592,514.23376729006407
2015-10-24 13:41:30.326119,586,513.98172902308818
2015-10-24 13:41:30.326297,575,513.72969075611218
2015-10-24 13:41:30.326472,561,513.47765248913618
2015-10-24 13:41:30.342059,546,513.22561422216017
2015-10-24 13:41:30.342240,529,512.97357595518417
2015-10-24 13:41:30.342394,513,512.72153768820829
2015-10-24 13:41:30.358062,497,512.46949942123229
2015-10-24 13:41:30.358240,483,512.21746115425628
2015-10-24 13:41:30.358399,471,511.96542288728028
2015-10-24 13:41:30.374012,461,511.71338462030428
2015-10-24 13:41:30.374193,455,511.46134635332828
2015-10-24 13:41:30.374347,450,511.20930808635239
2015-10-24 13:41:30.390009,447,510.95726981937639
2015-10-24 13:41:30.390187,445,510.70523155240039
2015-10-24 13:41:30.390340,446,510.45319328542439
2015-10-24 13:41:30.406006,447,510.2011550184485
2015-10-24 13:41:30.406183,446,509.9491167514725
2015-10-24 13:41:30.406336,445,509.6970784844965
2015-10-24 13:41:30.421963,446,509.4450402175205
2015-10-24 13:41:30.422145,447,509.1930019505445
2015-10-24 13:41:30.422300,446,508.9409636835685
2015-10-24 13:41:30.437991,448,508.68892541659261
2015-10-24 13:41:30.438172,451,508.43688714961661
2015-10-24 13:41:30.438328,452,508.18484888264061
2015-10-24 13:41:30.453958,452,507.93281061566461
2015-10-24 13:41:30.454137,455,507.68077234868872
2015-10-24 13:41:30.454295,457,507.54143150307493
2015-10-24 13:41:30.469926,461,507.44363773707755
2015-10-24 13:41:30.470111,464,507.34584397107994
2015-10-24 13:41:30.470261,465,507.24805020508245
2015-10-24 13:41:30.485881,467,507.15025643908484
2015-10-24 13:41:30.486062,468,507.05246267308735
2015-10-24 13:41:30.486214,468,506.95466890708974
2015-10-24 13:41:30.501902,471,506.85687514109225
2015-10-24 13:41:30.502098,475,506.75908137509464
2015-10-24 13:41:30.502256,476,506.66128760909714
2015-10-24 13:41:30.517811,476,506.56349384309954
2015-10-24 13:41:30.518056,476,506.46570007710204
2015-10-24 13:41:30.518212,477,506.36790631110443
2015-10-24 13:41:30.533815,477,506.27011254510683
2015-10-24 13:41:30.534065,475,506.17231877910933
2015-10-24 13:41:30.534218,477,506.07452501311172
2015-10-24 13:41:30.549709,480,505.97673124711423
2015-10-24 13:41:30.549908,478,505.87893748111662
2015-10-24 13:41:30.550060,475,505.78114371511913
2015-10-24 13:41:30.550211,476,505.68334994912152
2015-10-24 13:41:30.565971,476,505.58555618312403
2015-10-24 13:41:30.566148,475,505.48776241712642
2015-10-24 13:41:30.566304,476,505.38996865112881
2015-10-24 13:41:30.582058,477,505.29217488513132
2015-10-24 13:41:30.582241,477,505.19438111913371
2015-10-24 13:41:30.582399,474,505.09658735313621
2015-10-24 13:41:30.598114,472,504.99879358713861
2015-10-24 13:41:30.598362,474,504.90099982114111
2015-10-24 13:41:30.598526,477,504.80320605514351
2015-10-24 13:41:30.613954,478,504.7054122891459
2015-10-24 13:41:30.614129,478,504.6076185231484
2015-10-24 13:41:30.614281,479,504.50982475715091
2015-10-24 13:41:30.630155,479,504.4120309911533
2015-10-24 13:41:30.630412,477,504.31423722515581
2015-10-24 13:41:30.630577,477,504.2164434591582
2015-10-24 13:41:30.645800,481,504.11407390394299
2015-10-24 13:41:30.645975,484,504.28109842911977
2015-10-24 13:41:30.646127,486,504.43534293009816
2015-10-24 13:41:30.661935,487,504.58958743107667
2015-10-24 13:41:30.662112,491,504.74383193205517
2015-10-24 13:41:30.662268,491,504.89807643303357
2015-10-24 13:41:30.678123,491,505.05232093401219
2015-10-24 13:41:30.678390,493,505.20656543499058
2015-10-24 13:41:30.678559,494,505.36080993596909
2015-10-24 13:41:30.693857,489,505.51505443694759
2015-10-24 13:41:30.694038,489,505.6692989379261
2015-10-24 13:41:30.694193,495,505.82354343890461
2015-10-24 13:41:30.709915,499,505.97778793988311
2015-10-24 13:41:30.710260,498,506.13203244086162
2015-10-24 13:41:30.710428,500,506.28627694184013
2015-10-24 13:41:30.725898,504,506.44052144281852
2015-10-24 13:41:30.726092,501,506.59476594379703
2015-10-24 13:41:30.726253,493,506.74901044477554
2015-10-24 13:41:30.741834,484,506.90325494575404
2015-10-24 13:41:30.742019,479,507.05749944673255
2015-10-24 13:41:30.742172,478,507.21174394771106
2015-10-24 13:41:30.757831,478,507.36598844868956
2015-10-24 13:41:30.758018,480,507.52023294966807
2015-10-24 13:41:30.758176,481,507.67447745064646
2015-10-24 13:41:30.773708,479,507.82872195162508
2015-10-24 13:41:30.773959,478,507.98296645260348
2015-10-24 13:41:30.774117,481,508.13721095358198
2015-10-24 13:41:30.789716,483,508.29145545456049
2015-10-24 13:41:30.789969,482,508.44569995553888
2015-10-24 13:41:30.790125,485,508.59994445651751
2015-10-24 13:41:30.805705,494,508.7541889574959
2015-10-24 13:41:30.805956,499,508.90843345847441
2015-10-24 13:41:30.806111,528,509.06267795945291
2015-10-24 13:41:30.806261,600,509.21692246043142
2015-10-24 13:41:30.821879,686,509.37116696140993
2015-10-24 13:41:30.822057,782,509.52541146238855
2015-10-24 13:41:30.822210,833,509.67965596336694
2015-10-24 13:41:30.837766,805,509.83390046434545
2015-10-24 13:41:30.837947,730,509.98814496532395
2015-10-24 13:41:30.838101,548,510.14238946630257
2015-10-24 13:41:30.853873,387,510.25284544898443
2015-10-24 13:41:30.854047,363,510.22904405509792
2015-10-24 13:41:30.854201,393,510.2052426612114
2015-10-24 13:41:30.869914,431,510.18144126732477
2015-10-24 13:41:30.870097,465,510.15763987343826
2015-10-24 13:41:30.870254,482,510.13383847955174
2015-10-24 13:41:30.885688,485,510.11003708566511
2015-10-24 13:41:30.885862,483,510.0862356917786
2015-10-24 13:41:30.886016,482,510.06243429789197
2015-10-24 13:41:30.901832,484,510.03863290400545
2015-10-24 13:41:30.902009,487,510.01483151011894
2015-10-24 13:41:30.902162,490,509.99103011623231
2015-10-24 13:41:30.917800,494,509.96722872234579
2015-10-24 13:41:30.917978,499,509.94342732845928
2015-10-24 13:41:30.918136,504,509.91962593457265
2015-10-24 13:41:30.933641,505,509.89582454068614
2015-10-24 13:41:30.933817,507,509.87202314679962
2015-10-24 13:41:30.933969,511,509.84822175291299
2015-10-24 13:41:30.949791,516,509.82442035902648
2015-10-24 13:41:30.949970,520,509.80061896513985
2015-10-24 13:41:30.950124,525,509.77681757125322
2015-10-24 13:41:30.965528,529,509.7530161773667
2015-10-24 13:41:30.965710,532,509.72921478348007
2015-10-24 13:41:30.965862,537,509.70541338959356
2015-10-24 13:41:30.981752,544,509.68161199570704
2015-10-24 13:41:30.981936,550,509.54511318045809
2015-10-24 13:41:30.982089,556,509.36706728559307
2015-10-24 13:41:30.997733,561,509.18902139072804
2015-10-24 13:41:30.997918,570,509.01097549586291
2015-10-24 13:41:30.998069,581,508.83292960099789
2015-10-24 13:41:31.013800,589,508.65488370613275
2015-10-24 13:41:31.014170,596,508.47683781126773
2015-10-24 13:41:31.014353,603,508.29879191640271
2015-10-24 13:41:31.029628,609,508.12074602153757
2015-10-24 13:41:31.029877,608,507.94270012667255
2015-10-24 13:41:31.030033,605,507.76465423180753
2015-10-24 13:41:31.045631,604,507.58660833694239
2015-10-24 13:41:31.045880,601,507.40856244207737
2015-10-24 13:41:31.046036,593,507.23051654721235
2015-10-24 13:41:31.046184,583,507.05247065234721
2015-10-24 13:41:31.061832,574,506.87442475748207
2015-10-24 13:41:31.062012,561,506.69637886261694
2015-10-24 13:41:31.062172,544,506.5183329677518
2015-10-24 13:41:31.077801,528,506.34028707288667
2015-10-24 13:41:31.077980,512,506.16224117802153
2015-10-24 13:41:31.078131,498,505.9841952831564
2015-10-24 13:41:31.093869,483,505.80614938829126
2015-10-24 13:41:31.094153,471,505.62810349342612
2015-10-24 13:41:31.094315,463,505.45005759856099
2015-10-24 13:41:31.109757,457,505.27201170369585
2015-10-24 13:41:31.109930,452,505.09396580883072
2015-10-24 13:41:31.110080,450,504.91591991396558
2015-10-24 13:41:31.125758,451,504.73787401910045
2015-10-24 13:41:31.125936,447,504.55982812423531
2015-10-24 13:41:31.126087,443,504.38178222937017
2015-10-24 13:41:31.141760,444,504.20373633450504
2015-10-24 13:41:31.141937,445,504.0256904396399
2015-10-24 13:41:31.142094,446,503.84764454477477
2015-10-24 13:41:31.157742,446,503.66959864990963
2015-10-24 13:41:31.157928,448,503.49155275504449
2015-10-24 13:41:31.158088,450,503.31350686017936
2015-10-24 13:41:31.173705,449,503.31586610637351
2015-10-24 13:41:31.173885,451,503.35210077268789
2015-10-24 13:41:31.174037,455,503.36892401061959
2015-10-24 13:41:31.189703,456,503.3857472485513
2015-10-24 13:41:31.189883,454,503.40257048648289
2015-10-24 13:41:31.190039,459,503.41939372441459
2015-10-24 13:41:31.205519,465,503.43621696234629
2015-10-24 13:41:31.205700,466,503.453040200278
2015-10-24 13:41:31.205947,467,503.46986343820959
2015-10-24 13:41:31.221726,469,503.48668667614129
2015-10-24 13:41:31.221914,472,503.50350991407299
2015-10-24 13:41:31.222096,473,503.5203331520047
2015-10-24 13:41:31.237654,473,503.53715638993629
2015-10-24 13:41:31.237838,473,503.5539796278681
2015-10-24 13:41:31.237991,473,503.57080286579981
2015-10-24 13:41:31.253558,472,503.5876261037314
2015-10-24 13:41:31.253807,472,503.6044493416631
2015-10-24 13:41:31.253966,476,503.62127257959492
2015-10-24 13:41:31.269637,477,503.63809581752651
2015-10-24 13:41:31.269903,473,503.65491905545821
2015-10-24 13:41:31.270064,474,503.67174229338991
2015-10-24 13:41:31.285538,476,503.68856553132161
2015-10-24 13:41:31.285792,479,503.70538876925332
2015-10-24 13:41:31.285947,477,503.72221200718502
2015-10-24 13:41:31.286101,473,503.73903524511672
2015-10-24 13:41:31.301560,474,503.75585848304843
2015-10-24 13:41:31.301734,475,503.77268172098013
2015-10-24 13:41:31.301887,472,503.78950495891172
2015-10-24 13:41:31.317712,473,503.80632819684354
2015-10-24 13:41:31.317887,475,503.82315143477524
2015-10-24 13:41:31.318040,475,503.83997467270683
2015-10-24 13:41:31.333704,474,503.85679791063853
2015-10-24 13:41:31.333880,474,503.87362114857024
2015-10-24 13:41:31.334031,476,503.89044438650194
2015-10-24 13:41:31.349480,474,503.90726762443364
2015-10-24 13:41:31.349656,473,503.92409086236535
2015-10-24 13:41:31.349810,474,503.94091410029705
2015-10-24 13:41:31.365656,477,503.95773733822887
2015-10-24 13:41:31.365835,480,503.97456057616057
2015-10-24 13:41:31.365992,479,504.03517233238892
2015-10-24 13:41:31.381493,479,504.23004146518576
2015-10-24 13:41:31.381714,480,504.4249105979826
2015-10-24 13:41:31.381867,481,504.61977973077944
2015-10-24 13:41:31.397583,482,504.81464886357628
2015-10-24 13:41:31.397770,486,505.00951799637312
2015-10-24 13:41:31.397930,488,505.20438712916996
2015-10-24 13:41:31.413636,487,505.39925626196691
2015-10-24 13:41:31.413815,490,505.59412539476364
2015-10-24 13:41:31.413966,494,505.78899452756059
2015-10-24 13:41:31.429829,493,505.98386366035731
2015-10-24 13:41:31.430101,493,506.17873279315427
2015-10-24 13:41:31.430271,492,506.37360192595111
2015-10-24 13:41:31.445663,490,506.56847105874795
2015-10-24 13:41:31.445846,494,506.76334019154478
2015-10-24 13:41:31.446001,498,506.95820932434162
2015-10-24 13:41:31.461582,501,507.15307845713846
2015-10-24 13:41:31.461766,505,507.3479475899353
2015-10-24 13:41:31.461919,506,507.54281672273214
2015-10-24 13:41:31.477628,502,507.73768585552898
2015-10-24 13:41:31.477817,497,507.93255498832582
2015-10-24 13:41:31.477971,492,508.12742412112277
2015-10-24 13:41:31.493486,484,508.3222932539195
2015-10-24 13:41:31.493735,478,508.51716238671645
2015-10-24 13:41:31.493893,478,508.71203151951329
2015-10-24 13:41:31.509492,480,508.90690065231013
2015-10-24 13:41:31.509742,482,509.10176978510697
2015-10-24 13:41:31.509903,483,509.29663891790381
2015-10-24 13:41:31.525463,485,509.49150805070065
2015-10-24 13:41:31.525711,485,509.68637718349748
2015-10-24 13:41:31.525862,484,509.88124631629432
2015-10-24 13:41:31.541461,484,510.07611544909116
2015-10-24 13:41:31.541709,485,510.270984581888
2015-10-24 13:41:31.541864,496,510.46585371468473
2015-10-24 13:41:31.542013,501,510.66072284748168
2015-10-24 13:41:31.557650,507,510.8555919802784
2015-10-24 13:41:31.557830,553,511.05046111307524
2015-10-24 13:41:31.557986,634,511.24533024587208
2015-10-24 13:41:31.573630,723,511.44019937866892
2015-10-24 13:41:31.573807,813,511.63506851146576
2015-10-24 13:41:31.573973,840,511.8299376442626
2015-10-24 13:41:31.589603,802,512.02480677705944
2015-10-24 13:41:31.589780,684,512.21967590985628
2015-10-24 13:41:31.589932,479,512.41454504265312
2015-10-24 13:41:31.605653,371,512.51129855333875
2015-10-24 13:41:31.605833,374,512.58667793253198
2015-10-24 13:41:31.606012,405,512.66205731172533
2015-10-24 13:41:31.621437,447,512.73743669091857
2015-10-24 13:41:31.621613,479,512.81281607011192
2015-10-24 13:41:31.621765,488,512.88819544930516
2015-10-24 13:41:31.637650,485,512.96357482849851
2015-10-24 13:41:31.637831,484,513.03895420769175
2015-10-24 13:41:31.637988,486,513.1143335868851
2015-10-24 13:41:31.653597,487,513.18971296607833
2015-10-24 13:41:31.653780,492,513.26509234527168
2015-10-24 13:41:31.653937,497,513.34047172446492
2015-10-24 13:41:31.669388,499,513.41585110365816
2015-10-24 13:41:31.669534,500,513.49123048285151
2015-10-24 13:41:31.669644,504,513.56660986204474
2015-10-24 13:41:31.685159,511,513.64198924123809
2015-10-24 13:41:31.685285,514,513.71736862043133
2015-10-24 13:41:31.685398,516,513.61234285856517
2015-10-24 13:41:31.701083,519,513.473441676579
2015-10-24 13:41:31.701162,523,513.3539519229754
2015-10-24 13:41:31.701223,527,513.23446216937191
2015-10-24 13:41:31.717087,530,513.11497241576831
2015-10-24 13:41:31.717146,535,512.99548266216482
2015-10-24 13:41:31.717192,544,512.87599290856122
2015-10-24 13:41:31.733128,552,512.75650315495761
2015-10-24 13:41:31.733189,557,512.63701340135412
2015-10-24 13:41:31.733235,564,512.51752364775052
2015-10-24 13:41:31.749024,573,512.39803389414703
2015-10-24 13:41:31.749082,581,512.27854414054343
2015-10-24 13:41:31.749128,588,512.15905438693983
2015-10-24 13:41:31.765153,597,512.03956463333634
2015-10-24 13:41:31.765227,605,511.92007487973274
2015-10-24 13:41:31.765273,607,511.80058512612925
2015-10-24 13:41:31.781389,608,511.68109537252565
2015-10-24 13:41:31.781643,611,511.56160561892204
2015-10-24 13:41:31.781799,614,511.44211586531856
2015-10-24 13:41:31.781954,609,511.32262611171495
2015-10-24 13:41:31.797789,601,511.20313635811146
2015-10-24 13:41:31.798017,594,511.08364660450786
2015-10-24 13:41:31.798179,587,510.96415685090426
2015-10-24 13:41:31.813541,577,510.84466709730077
2015-10-24 13:41:31.813720,565,510.72517734369728
2015-10-24 13:41:31.813874,553,510.60568759009379
2015-10-24 13:41:31.829539,537,510.48619783649019
2015-10-24 13:41:31.829716,518,510.3667080828867
2015-10-24 13:41:31.829967,504,510.24721832928321
2015-10-24 13:41:31.845635,492,510.12772857567973
2015-10-24 13:41:31.845895,479,510.00823882207612
2015-10-24 13:41:31.846065,468,509.88874906847263
2015-10-24 13:41:31.861537,463,509.76925931486915
2015-10-24 13:41:31.861714,460,509.64976956126566
2015-10-24 13:41:31.861867,454,509.53027980766205
2015-10-24 13:41:31.877612,450,509.41079005405857
2015-10-24 13:41:31.877874,453,509.29130030045508
2015-10-24 13:41:31.878042,452,509.17181054685159
2015-10-24 13:41:31.893143,450,509.0523207932481
2015-10-24 13:41:31.893268,450,508.92506646829145
2015-10-24 13:41:31.893365,450,508.88860285772046
2015-10-24 13:41:31.909459,453,508.84539003545115
2015-10-24 13:41:31.909637,452,508.78664807047596
2015-10-24 13:41:31.909793,452,508.72790610550055
2015-10-24 13:41:31.925457,454,508.66916414052525
2015-10-24 13:41:31.925650,458,508.61042217554996
2015-10-24 13:41:31.925805,460,508.55168021057466
2015-10-24 13:41:31.941406,461,508.49293824559936
2015-10-24 13:41:31.941592,464,508.43419628062406
2015-10-24 13:41:31.941746,467,508.37545431564877
2015-10-24 13:41:31.957461,468,508.31671235067347
2015-10-24 13:41:31.957649,469,508.25797038569817
2015-10-24 13:41:31.957832,473,508.19922842072287
2015-10-24 13:41:31.973420,473,508.14048645574746
2015-10-24 13:41:31.973612,473,508.08174449077217
2015-10-24 13:41:31.973772,475,508.02300252579687
2015-10-24 13:41:31.989383,476,507.96426056082157
2015-10-24 13:41:31.989585,477,507.90551859584616
2015-10-24 13:41:31.989734,478,507.84677663087086
2015-10-24 13:41:32.005289,480,507.78803466589557
2015-10-24 13:41:32.005541,480,507.72929270092027
2015-10-24 13:41:32.005696,479,507.67055073594486
2015-10-24 13:41:32.021352,480,507.61180877096956
2015-10-24 13:41:32.021600,481,507.55306680599426
2015-10-24 13:41:32.021758,481,507.49432484101897
2015-10-24 13:41:32.021910,480,507.43558287604355
2015-10-24 13:41:32.037452,480,507.37684091106826
2015-10-24 13:41:32.037628,481,507.31809894609296
2015-10-24 13:41:32.037782,481,507.25935698111755
2015-10-24 13:41:32.053465,479,507.20061501614236
2015-10-24 13:41:32.053645,479,507.14187305116695
2015-10-24 13:41:32.053797,479,507.08313108619166
2015-10-24 13:41:32.069425,480,507.02438912121625
2015-10-24 13:41:32.069605,479,506.96564715624106
2015-10-24 13:41:32.069756,479,506.90690519126565
2015-10-24 13:41:32.085373,479,506.84816322629035
2015-10-24 13:41:32.085552,482,506.78942126131494
2015-10-24 13:41:32.085710,481,506.73067929633964
2015-10-24 13:41:32.101220,482,506.67193733136435
2015-10-24 13:41:32.101397,485,506.61319536638894
2015-10-24 13:41:32.101549,488,506.55445340141353
2015-10-24 13:41:32.117428,487,506.49571143643811
2015-10-24 13:41:32.117607,490,506.4369694714627
2015-10-24 13:41:32.117763,493,506.47634312859839
2015-10-24 13:41:32.133353,490,506.53709091722658
2015-10-24 13:41:32.133533,490,506.59783870585477
2015-10-24 13:41:32.133685,493,506.65858649448285
2015-10-24 13:41:32.149347,497,506.71933428311104
2015-10-24 13:41:32.149525,499,506.78008207173912
2015-10-24 13:41:32.149679,495,506.84082986036731
2015-10-24 13:41:32.165318,495,506.90157764899539
2015-10-24 13:41:32.165493,499,506.96232543762358
2015-10-24 13:41:32.165643,500,507.02307322625165
2015-10-24 13:41:32.181164,503,507.08252691965436
2015-10-24 13:41:32.181345,507,507.14068651783145
2015-10-24 13:41:32.181497,509,507.19755202078295
2015-10-24 13:41:32.197297,507,507.25441752373445
2015-10-24 13:41:32.197480,501,507.30998893146057
2015-10-24 13:41:32.197634,495,507.36556033918669
2015-10-24 13:41:32.213276,486,507.42113174691281
2015-10-24 13:41:32.213461,481,507.47670315463893
2015-10-24 13:41:32.213614,480,507.53227456236493
2015-10-24 13:41:32.229162,482,507.58784597009105
2015-10-24 13:41:32.229414,484,507.64341737781717
2015-10-24 13:41:32.229573,485,507.69898878554329
2015-10-24 13:41:32.245215,488,507.7545601932693
2015-10-24 13:41:32.245469,486,507.81013160099542
2015-10-24 13:41:32.245623,484,507.86570300872154
2015-10-24 13:41:32.261095,484,507.92127441644766
2015-10-24 13:41:32.261431,488,507.97684582417378
2015-10-24 13:41:32.261606,500,508.0324172318999
2015-10-24 13:41:32.261713,502,508.08798863962602
2015-10-24 13:41:32.277355,512,508.14356004735214
2015-10-24 13:41:32.277535,563,508.19913145507826
2015-10-24 13:41:32.277694,639,508.25470286280427
2015-10-24 13:41:32.293324,723,508.3102742705305
2015-10-24 13:41:32.293499,801,508.36584567825662
2015-10-24 13:41:32.293652,812,508.42141708598263
2015-10-24 13:41:32.309388,776,508.47698849370875
2015-10-24 13:41:32.309566,655,508.53255990143498
2015-10-24 13:41:32.309717,459,508.58813130916099
2015-10-24 13:41:32.325320,372,508.61183979119073
2015-10-24 13:41:32.325497,385,508.66143017773072
2015-10-24 13:41:32.325649,415,508.71102056427071
2015-10-24 13:41:32.341296,452,508.76061095081059
2015-10-24 13:41:32.341473,482,508.81020133735058
2015-10-24 13:41:32.341623,495,508.85979172389045
2015-10-24 13:41:32.357301,495,508.90938211043056
2015-10-24 13:41:32.357478,495,508.95897249697043
2015-10-24 13:41:32.357631,496,509.00856288351042
2015-10-24 13:41:32.373344,497,509.0581532700503
2015-10-24 13:41:32.373527,498,509.1077436565904
2015-10-24 13:41:32.373682,501,509.15733404313028
2015-10-24 13:41:32.389100,505,509.20692442967038
2015-10-24 13:41:32.389276,507,509.25651481621026
2015-10-24 13:41:32.389429,511,509.30610520275036
2015-10-24 13:41:32.405251,516,509.35569558929024
2015-10-24 13:41:32.405433,522,509.40528597583022
2015-10-24 13:41:32.405588,523,509.4548763623701
2015-10-24 13:41:32.421239,526,509.51223132026314
2015-10-24 13:41:32.421416,531,509.47879556377063
2015-10-24 13:41:32.421563,534,509.45210901897622
2015-10-24 13:41:32.437216,537,509.44095161688801
2015-10-24 13:41:32.437400,543,509.42979421479981
2015-10-24 13:41:32.437555,551,509.41863681271161
2015-10-24 13:41:32.453177,556,509.40747941062341
2015-10-24 13:41:32.453361,562,509.39632200853521
2015-10-24 13:41:32.453514,570,509.38516460644701
2015-10-24 13:41:32.469249,579,509.3740072043588
2015-10-24 13:41:32.469528,587,509.3628498022706
2015-10-24 13:41:32.469686,594,509.3516924001824
2015-10-24 13:41:32.485092,602,509.34053499809409
2015-10-24 13:41:32.485339,609,509.32937759600588
2015-10-24 13:41:32.485493,613,509.31822019391768
2015-10-24 13:41:32.501195,613,509.30706279182948
