2015-10-27 17:26:22.149575, 430
2015-10-27 17:26:22.149669, 430
2015-10-27 17:26:22.149734, 430
2015-10-27 17:26:22.165581, 430
2015-10-27 17:26:22.165672, 429
2015-10-27 17:26:22.165737, 430
2015-10-27 17:26:22.181500, 429
2015-10-27 17:26:22.181607, 430
2015-10-27 17:26:22.181674, 429
2015-10-27 17:26:22.197704, 429
2015-10-27 17:26:22.197825, 429
2015-10-27 17:26:22.197891, 429
2015-10-27 17:26:22.213575, 429
2015-10-27 17:26:22.213684, 429
2015-10-27 17:26:22.213750, 429
2015-10-27 17:26:22.213812, 429
2015-10-27 17:26:22.229733, 428
2015-10-27 17:26:22.229840, 428
2015-10-27 17:26:22.229922, 427
2015-10-27 17:26:22.245684, 426
2015-10-27 17:26:22.245772, 427
2015-10-27 17:26:22.245841, 429
2015-10-27 17:26:22.261749, 428
2015-10-27 17:26:22.261835, 428
2015-10-27 17:26:22.261899, 429
2015-10-27 17:26:22.277706, 430
2015-10-27 17:26:22.277798, 429
2015-10-27 17:26:22.277864, 428
2015-10-27 17:26:22.293572, 429
2015-10-27 17:26:22.293663, 429
2015-10-27 17:26:22.293740, 431
2015-10-27 17:26:22.309335, 434
2015-10-27 17:26:22.309398, 435
2015-10-27 17:26:22.309443, 436
2015-10-27 17:26:22.325567, 434
2015-10-27 17:26:22.325682, 433
2015-10-27 17:26:22.325747, 433
2015-10-27 17:26:22.341384, 433
2015-10-27 17:26:22.341477, 436
2015-10-27 17:26:22.341562, 438
2015-10-27 17:26:22.357385, 440
2015-10-27 17:26:22.357465, 440
2015-10-27 17:26:22.357518, 443
2015-10-27 17:26:22.373318, 443
2015-10-27 17:26:22.373391, 441
2015-10-27 17:26:22.373445, 442
2015-10-27 17:26:22.389292, 445
2015-10-27 17:26:22.389366, 446
2015-10-27 17:26:22.389417, 446
2015-10-27 17:26:22.405356, 445
2015-10-27 17:26:22.405433, 445
2015-10-27 17:26:22.405487, 444
2015-10-27 17:26:22.421296, 446
2015-10-27 17:26:22.421358, 448
2015-10-27 17:26:22.421399, 449
2015-10-27 17:26:22.437318, 453
2015-10-27 17:26:22.437425, 455
2015-10-27 17:26:22.437490, 455
2015-10-27 17:26:22.453491, 456
2015-10-27 17:26:22.453600, 458
2015-10-27 17:26:22.453665, 459
2015-10-27 17:26:22.469300, 459
2015-10-27 17:26:22.469481, 460
2015-10-27 17:26:22.469604, 462
2015-10-27 17:26:22.469794, 466
2015-10-27 17:26:22.485293, 467
2015-10-27 17:26:22.485363, 466
2015-10-27 17:26:22.485412, 470
2015-10-27 17:26:22.501534, 473
2015-10-27 17:26:22.501782, 475
2015-10-27 17:26:22.501921, 477
2015-10-27 17:26:22.517477, 479
2015-10-27 17:26:22.517566, 482
2015-10-27 17:26:22.517631, 482
2015-10-27 17:26:22.533591, 484
2015-10-27 17:26:22.533684, 484
2015-10-27 17:26:22.533748, 478
2015-10-27 17:26:22.549359, 471
2015-10-27 17:26:22.549447, 468
2015-10-27 17:26:22.549512, 469
2015-10-27 17:26:22.565354, 473
2015-10-27 17:26:22.565443, 474
2015-10-27 17:26:22.565508, 472
2015-10-27 17:26:22.581270, 473
2015-10-27 17:26:22.581336, 476
2015-10-27 17:26:22.581383, 477
2015-10-27 17:26:22.597200, 478
2015-10-27 17:26:22.597256, 479
2015-10-27 17:26:22.597293, 480
2015-10-27 17:26:22.613281, 481
2015-10-27 17:26:22.613388, 482
2015-10-27 17:26:22.613465, 483
2015-10-27 17:26:22.629382, 485
2015-10-27 17:26:22.629493, 489
2015-10-27 17:26:22.629577, 497
2015-10-27 17:26:22.645238, 520
2015-10-27 17:26:22.645305, 590
2015-10-27 17:26:22.645354, 698
2015-10-27 17:26:22.661325, 739
2015-10-27 17:26:22.661419, 678
2015-10-27 17:26:22.661483, 514
2015-10-27 17:26:22.677257, 364
2015-10-27 17:26:22.677435, 240
2015-10-27 17:26:22.677564, 187
2015-10-27 17:26:22.693172, 288
2015-10-27 17:26:22.693279, 400
2015-10-27 17:26:22.693321, 456
2015-10-27 17:26:22.709224, 486
2015-10-27 17:26:22.709333, 504
2015-10-27 17:26:22.709400, 514
2015-10-27 17:26:22.709462, 519
2015-10-27 17:26:22.725460, 522
2015-10-27 17:26:22.725548, 526
2015-10-27 17:26:22.725710, 529
2015-10-27 17:26:22.741360, 534
2015-10-27 17:26:22.741450, 537
2015-10-27 17:26:22.741516, 537
2015-10-27 17:26:22.757401, 541
2015-10-27 17:26:22.757490, 546
2015-10-27 17:26:22.757554, 550
2015-10-27 17:26:22.773427, 554
2015-10-27 17:26:22.773517, 556
2015-10-27 17:26:22.773582, 560
2015-10-27 17:26:22.789314, 562
2015-10-27 17:26:22.789405, 563
2015-10-27 17:26:22.789471, 566
2015-10-27 17:26:22.805583, 571
2015-10-27 17:26:22.805743, 576
2015-10-27 17:26:22.805816, 582
2015-10-27 17:26:22.821269, 591
2015-10-27 17:26:22.821476, 597
2015-10-27 17:26:22.821628, 602
2015-10-27 17:26:22.837468, 609
2015-10-27 17:26:22.837560, 613
2015-10-27 17:26:22.837625, 621
2015-10-27 17:26:22.853460, 631
2015-10-27 17:26:22.853551, 640
2015-10-27 17:26:22.853615, 650
2015-10-27 17:26:22.869287, 660
2015-10-27 17:26:22.869443, 672
2015-10-27 17:26:22.869570, 682
2015-10-27 17:26:22.885387, 688
2015-10-27 17:26:22.885480, 692
2015-10-27 17:26:22.885546, 694
2015-10-27 17:26:22.901277, 692
2015-10-27 17:26:22.901381, 691
2015-10-27 17:26:22.901448, 687
2015-10-27 17:26:22.917178, 681
2015-10-27 17:26:22.917269, 672
2015-10-27 17:26:22.917335, 661
2015-10-27 17:26:22.933357, 643
2015-10-27 17:26:22.933466, 623
2015-10-27 17:26:22.933531, 603
2015-10-27 17:26:22.949223, 583
2015-10-27 17:26:22.949332, 562
2015-10-27 17:26:22.949399, 546
2015-10-27 17:26:22.949461, 531
2015-10-27 17:26:22.965268, 516
2015-10-27 17:26:22.965356, 504
2015-10-27 17:26:22.965421, 496
2015-10-27 17:26:22.981316, 489
2015-10-27 17:26:22.981407, 484
2015-10-27 17:26:22.981472, 477
2015-10-27 17:26:22.997535, 474
2015-10-27 17:26:22.997667, 473
2015-10-27 17:26:22.997731, 472
2015-10-27 17:26:23.013316, 472
2015-10-27 17:26:23.013406, 473
2015-10-27 17:26:23.013471, 474
2015-10-27 17:26:23.029196, 476
2015-10-27 17:26:23.029287, 477
2015-10-27 17:26:23.029376, 478
2015-10-27 17:26:23.045335, 481
2015-10-27 17:26:23.045425, 483
2015-10-27 17:26:23.045489, 483
2015-10-27 17:26:23.061104, 484
2015-10-27 17:26:23.061167, 488
2015-10-27 17:26:23.061212, 493
2015-10-27 17:26:23.077254, 496
2015-10-27 17:26:23.077353, 497
2015-10-27 17:26:23.077419, 500
2015-10-27 17:26:23.093180, 504
2015-10-27 17:26:23.093276, 506
2015-10-27 17:26:23.093538, 507
2015-10-27 17:26:23.109178, 510
2015-10-27 17:26:23.109411, 511
2015-10-27 17:26:23.109541, 513
2015-10-27 17:26:23.125207, 516
2015-10-27 17:26:23.125315, 515
2015-10-27 17:26:23.125389, 512
2015-10-27 17:26:23.141320, 509
2015-10-27 17:26:23.141414, 511
2015-10-27 17:26:23.141479, 514
2015-10-27 17:26:23.157098, 512
2015-10-27 17:26:23.157209, 512
2015-10-27 17:26:23.157278, 514
2015-10-27 17:26:23.173106, 515
2015-10-27 17:26:23.173220, 514
2015-10-27 17:26:23.173287, 514
2015-10-27 17:26:23.189100, 515
2015-10-27 17:26:23.189223, 515
2015-10-27 17:26:23.189289, 513
2015-10-27 17:26:23.189351, 514
2015-10-27 17:26:23.205166, 515
2015-10-27 17:26:23.205257, 512
2015-10-27 17:26:23.205323, 512
2015-10-27 17:26:23.221545, 515
2015-10-27 17:26:23.221653, 516
2015-10-27 17:26:23.221721, 516
2015-10-27 17:26:23.237310, 516
2015-10-27 17:26:23.237404, 516
2015-10-27 17:26:23.237470, 516
2015-10-27 17:26:23.253332, 517
2015-10-27 17:26:23.253424, 517
2015-10-27 17:26:23.253488, 517
2015-10-27 17:26:23.269259, 515
2015-10-27 17:26:23.269349, 517
2015-10-27 17:26:23.269414, 519
2015-10-27 17:26:23.285418, 520
2015-10-27 17:26:23.285537, 520
2015-10-27 17:26:23.285602, 522
2015-10-27 17:26:23.301087, 521
2015-10-27 17:26:23.301179, 523
2015-10-27 17:26:23.301264, 525
2015-10-27 17:26:23.317241, 523
2015-10-27 17:26:23.317333, 523
2015-10-27 17:26:23.317410, 526
2015-10-27 17:26:23.333232, 526
2015-10-27 17:26:23.333324, 526
2015-10-27 17:26:23.333388, 527
2015-10-27 17:26:23.349083, 528
2015-10-27 17:26:23.349240, 530
2015-10-27 17:26:23.349315, 532
2015-10-27 17:26:23.365147, 532
2015-10-27 17:26:23.365241, 532
2015-10-27 17:26:23.365306, 532
2015-10-27 17:26:23.381304, 532
2015-10-27 17:26:23.381399, 532
2015-10-27 17:26:23.381464, 531
2015-10-27 17:26:23.397094, 532
2015-10-27 17:26:23.397254, 532
2015-10-27 17:26:23.397330, 536
2015-10-27 17:26:23.413319, 540
2015-10-27 17:26:23.413492, 538
2015-10-27 17:26:23.413622, 540
2015-10-27 17:26:23.429274, 542
2015-10-27 17:26:23.429408, 543
2015-10-27 17:26:23.429474, 545
2015-10-27 17:26:23.429537, 546
2015-10-27 17:26:23.445092, 548
2015-10-27 17:26:23.445183, 551
2015-10-27 17:26:23.445250, 552
2015-10-27 17:26:23.461240, 553
2015-10-27 17:26:23.461330, 551
2015-10-27 17:26:23.461396, 543
2015-10-27 17:26:23.477072, 534
2015-10-27 17:26:23.477162, 532
2015-10-27 17:26:23.477227, 531
2015-10-27 17:26:23.493198, 531
2015-10-27 17:26:23.493287, 532
2015-10-27 17:26:23.493352, 532
2015-10-27 17:26:23.509246, 531
2015-10-27 17:26:23.509336, 532
2015-10-27 17:26:23.509401, 530
2015-10-27 17:26:23.525072, 530
2015-10-27 17:26:23.525162, 531
2015-10-27 17:26:23.525228, 531
2015-10-27 17:26:23.541215, 530
2015-10-27 17:26:23.541305, 530
2015-10-27 17:26:23.541370, 530
2015-10-27 17:26:23.557064, 530
2015-10-27 17:26:23.557153, 534
2015-10-27 17:26:23.557218, 546
2015-10-27 17:26:23.573051, 579
2015-10-27 17:26:23.573146, 660
2015-10-27 17:26:23.573212, 747
2015-10-27 17:26:23.589027, 742
2015-10-27 17:26:23.589133, 645
2015-10-27 17:26:23.589232, 483
2015-10-27 17:26:23.605030, 375
2015-10-27 17:26:23.605187, 269
2015-10-27 17:26:23.605313, 280
2015-10-27 17:26:23.621123, 390
2015-10-27 17:26:23.621218, 473
2015-10-27 17:26:23.621283, 512
2015-10-27 17:26:23.637233, 533
2015-10-27 17:26:23.637453, 545
2015-10-27 17:26:23.637532, 551
2015-10-27 17:26:23.653130, 554
2015-10-27 17:26:23.653240, 556
2015-10-27 17:26:23.653306, 558
2015-10-27 17:26:23.669165, 560
2015-10-27 17:26:23.669276, 559
2015-10-27 17:26:23.669343, 562
2015-10-27 17:26:23.685131, 566
2015-10-27 17:26:23.685240, 570
2015-10-27 17:26:23.685306, 570
2015-10-27 17:26:23.685368, 571
2015-10-27 17:26:23.700953, 571
2015-10-27 17:26:23.701008, 571
2015-10-27 17:26:23.701046, 573
2015-10-27 17:26:23.716956, 573
2015-10-27 17:26:23.717010, 575
2015-10-27 17:26:23.717060, 579
2015-10-27 17:26:23.732963, 582
2015-10-27 17:26:23.733094, 582
2015-10-27 17:26:23.733150, 586
2015-10-27 17:26:23.748917, 592
2015-10-27 17:26:23.749040, 596
2015-10-27 17:26:23.749115, 602
2015-10-27 17:26:23.764981, 609
2015-10-27 17:26:23.765108, 613
2015-10-27 17:26:23.765149, 620
2015-10-27 17:26:23.780879, 630
2015-10-27 17:26:23.780933, 641
2015-10-27 17:26:23.780970, 649
2015-10-27 17:26:23.797059, 656
2015-10-27 17:26:23.797153, 663
2015-10-27 17:26:23.797219, 670
2015-10-27 17:26:23.813209, 676
2015-10-27 17:26:23.813363, 679
2015-10-27 17:26:23.813432, 680
2015-10-27 17:26:23.829227, 677
2015-10-27 17:26:23.829322, 673
2015-10-27 17:26:23.829387, 667
2015-10-27 17:26:23.844962, 658
2015-10-27 17:26:23.845032, 645
2015-10-27 17:26:23.845078, 630
2015-10-27 17:26:23.860986, 614
2015-10-27 17:26:23.861045, 599
2015-10-27 17:26:23.861084, 580
2015-10-27 17:26:23.877263, 560
2015-10-27 17:26:23.877397, 542
2015-10-27 17:26:23.877463, 526
2015-10-27 17:26:23.893185, 511
2015-10-27 17:26:23.893333, 498
2015-10-27 17:26:23.893399, 487
2015-10-27 17:26:23.909107, 478
2015-10-27 17:26:23.909216, 471
2015-10-27 17:26:23.909283, 466
2015-10-27 17:26:23.925181, 463
2015-10-27 17:26:23.925341, 462
2015-10-27 17:26:23.925408, 459
2015-10-27 17:26:23.925470, 456
2015-10-27 17:26:23.941238, 453
2015-10-27 17:26:23.941428, 453
2015-10-27 17:26:23.941522, 454
2015-10-27 17:26:23.957020, 456
2015-10-27 17:26:23.957095, 457
2015-10-27 17:26:23.957148, 459
2015-10-27 17:26:23.973190, 458
2015-10-27 17:26:23.973280, 461
2015-10-27 17:26:23.973345, 463
2015-10-27 17:26:23.989098, 465
2015-10-27 17:26:23.989187, 467
2015-10-27 17:26:23.989252, 469
2015-10-27 17:26:24.005025, 470
2015-10-27 17:26:24.005164, 471
2015-10-27 17:26:24.005270, 472
2015-10-27 17:26:24.021234, 476
2015-10-27 17:26:24.021325, 478
2015-10-27 17:26:24.021449, 480
2015-10-27 17:26:24.037115, 480
2015-10-27 17:26:24.037205, 481
2015-10-27 17:26:24.037271, 484
2015-10-27 17:26:24.053198, 485
2015-10-27 17:26:24.053312, 483
2015-10-27 17:26:24.053379, 481
2015-10-27 17:26:24.069064, 481
2015-10-27 17:26:24.069159, 484
2015-10-27 17:26:24.069224, 484
2015-10-27 17:26:24.085122, 484
2015-10-27 17:26:24.085214, 484
2015-10-27 17:26:24.085280, 483
2015-10-27 17:26:24.101141, 484
2015-10-27 17:26:24.101262, 484
2015-10-27 17:26:24.101326, 482
2015-10-27 17:26:24.117123, 480
2015-10-27 17:26:24.117215, 479
2015-10-27 17:26:24.117281, 479
2015-10-27 17:26:24.132877, 479
2015-10-27 17:26:24.132986, 480
2015-10-27 17:26:24.133053, 482
2015-10-27 17:26:24.149081, 482
2015-10-27 17:26:24.149190, 480
2015-10-27 17:26:24.149256, 478
2015-10-27 17:26:24.164905, 481
2015-10-27 17:26:24.165141, 483
2015-10-27 17:26:24.165358, 483
2015-10-27 17:26:24.165441, 481
2015-10-27 17:26:24.180947, 479
2015-10-27 17:26:24.181037, 480
2015-10-27 17:26:24.181104, 482
2015-10-27 17:26:24.196975, 482
2015-10-27 17:26:24.197131, 481
2015-10-27 17:26:24.197224, 480
2015-10-27 17:26:24.212959, 480
2015-10-27 17:26:24.213105, 481
2015-10-27 17:26:24.213177, 480
2015-10-27 17:26:24.228893, 480
2015-10-27 17:26:24.228947, 483
2015-10-27 17:26:24.228984, 486
2015-10-27 17:26:24.244835, 486
2015-10-27 17:26:24.244893, 487
2015-10-27 17:26:24.244931, 486
2015-10-27 17:26:24.260862, 485
2015-10-27 17:26:24.260918, 484
2015-10-27 17:26:24.260955, 482
2015-10-27 17:26:24.276815, 484
2015-10-27 17:26:24.276870, 488
2015-10-27 17:26:24.276906, 490
2015-10-27 17:26:24.292838, 489
2015-10-27 17:26:24.292934, 487
2015-10-27 17:26:24.292996, 488
2015-10-27 17:26:24.308808, 489
2015-10-27 17:26:24.308873, 493
2015-10-27 17:26:24.308918, 495
2015-10-27 17:26:24.324829, 496
2015-10-27 17:26:24.324897, 495
2015-10-27 17:26:24.324943, 494
2015-10-27 17:26:24.340806, 494
2015-10-27 17:26:24.340863, 496
2015-10-27 17:26:24.340901, 496
2015-10-27 17:26:24.356812, 498
2015-10-27 17:26:24.356879, 501
2015-10-27 17:26:24.356918, 501
2015-10-27 17:26:24.372796, 502
2015-10-27 17:26:24.372877, 504
2015-10-27 17:26:24.372922, 504
2015-10-27 17:26:24.388994, 507
2015-10-27 17:26:24.389103, 510
2015-10-27 17:26:24.389223, 507
2015-10-27 17:26:24.404937, 499
2015-10-27 17:26:24.405090, 493
2015-10-27 17:26:24.405208, 491
2015-10-27 17:26:24.405335, 491
2015-10-27 17:26:24.420974, 492
2015-10-27 17:26:24.421066, 492
2015-10-27 17:26:24.421159, 492
2015-10-27 17:26:24.437130, 494
2015-10-27 17:26:24.437221, 491
2015-10-27 17:26:24.437285, 492
2015-10-27 17:26:24.452829, 493
2015-10-27 17:26:24.452919, 494
2015-10-27 17:26:24.452984, 496
2015-10-27 17:26:24.468951, 497
2015-10-27 17:26:24.469041, 498
2015-10-27 17:26:24.469107, 500
2015-10-27 17:26:24.485109, 501
2015-10-27 17:26:24.485225, 506
2015-10-27 17:26:24.485290, 520
2015-10-27 17:26:24.500988, 571
2015-10-27 17:26:24.501078, 663
2015-10-27 17:26:24.501143, 717
2015-10-27 17:26:24.516908, 684
2015-10-27 17:26:24.517000, 565
2015-10-27 17:26:24.517065, 418
2015-10-27 17:26:24.532985, 315
2015-10-27 17:26:24.533142, 229
2015-10-27 17:26:24.533267, 288
2015-10-27 17:26:24.548961, 398
2015-10-27 17:26:24.549052, 461
2015-10-27 17:26:24.549117, 492
2015-10-27 17:26:24.565141, 512
2015-10-27 17:26:24.565237, 522
2015-10-27 17:26:24.565324, 525
2015-10-27 17:26:24.580843, 525
2015-10-27 17:26:24.580943, 527
2015-10-27 17:26:24.581020, 528
2015-10-27 17:26:24.596821, 529
2015-10-27 17:26:24.597115, 530
2015-10-27 17:26:24.597248, 533
2015-10-27 17:26:24.613011, 536
2015-10-27 17:26:24.613139, 538
2015-10-27 17:26:24.613205, 539
2015-10-27 17:26:24.628977, 539
2015-10-27 17:26:24.629086, 541
2015-10-27 17:26:24.629152, 544
2015-10-27 17:26:24.645089, 547
2015-10-27 17:26:24.645258, 550
2015-10-27 17:26:24.645448, 553
2015-10-27 17:26:24.661066, 555
2015-10-27 17:26:24.661187, 554
2015-10-27 17:26:24.661366, 558
2015-10-27 17:26:24.661480, 563
2015-10-27 17:26:24.677040, 570
2015-10-27 17:26:24.677131, 576
2015-10-27 17:26:24.677195, 580
2015-10-27 17:26:24.692924, 584
2015-10-27 17:26:24.693013, 590
2015-10-27 17:26:24.693076, 600
2015-10-27 17:26:24.708799, 611
2015-10-27 17:26:24.708890, 620
2015-10-27 17:26:24.708955, 627
2015-10-27 17:26:24.725032, 634
2015-10-27 17:26:24.725123, 644
2015-10-27 17:26:24.725187, 650
2015-10-27 17:26:24.741069, 654
2015-10-27 17:26:24.741160, 658
2015-10-27 17:26:24.741225, 658
2015-10-27 17:26:24.756918, 656
2015-10-27 17:26:24.757008, 654
2015-10-27 17:26:24.757073, 649
2015-10-27 17:26:24.772995, 641
2015-10-27 17:26:24.773087, 629
2015-10-27 17:26:24.773152, 616
2015-10-27 17:26:24.788927, 599
2015-10-27 17:26:24.789021, 579
2015-10-27 17:26:24.789086, 557
2015-10-27 17:26:24.804851, 540
2015-10-27 17:26:24.804941, 523
2015-10-27 17:26:24.805006, 504
2015-10-27 17:26:24.820955, 488
2015-10-27 17:26:24.821080, 476
2015-10-27 17:26:24.821145, 467
2015-10-27 17:26:24.836858, 459
2015-10-27 17:26:24.836950, 453
2015-10-27 17:26:24.837014, 447
2015-10-27 17:26:24.852837, 445
2015-10-27 17:26:24.852931, 446
2015-10-27 17:26:24.852996, 445
2015-10-27 17:26:24.868809, 440
2015-10-27 17:26:24.868916, 438
2015-10-27 17:26:24.868982, 437
2015-10-27 17:26:24.884674, 437
2015-10-27 17:26:24.884821, 437
2015-10-27 17:26:24.884893, 437
2015-10-27 17:26:24.900852, 438
2015-10-27 17:26:24.900962, 440
2015-10-27 17:26:24.901177, 444
2015-10-27 17:26:24.901307, 445
2015-10-27 17:26:24.916846, 447
2015-10-27 17:26:24.916934, 452
2015-10-27 17:26:24.916998, 456
2015-10-27 17:26:24.932881, 458
2015-10-27 17:26:24.932970, 459
2015-10-27 17:26:24.933035, 461
2015-10-27 17:26:24.948859, 463
2015-10-27 17:26:24.948949, 467
2015-10-27 17:26:24.949014, 469
2015-10-27 17:26:24.964891, 469
2015-10-27 17:26:24.964981, 470
2015-10-27 17:26:24.965045, 471
2015-10-27 17:26:24.980642, 470
2015-10-27 17:26:24.980699, 469
2015-10-27 17:26:24.980747, 470
2015-10-27 17:26:24.996852, 468
2015-10-27 17:26:24.996943, 468
2015-10-27 17:26:24.997008, 468
2015-10-27 17:26:25.012816, 470
2015-10-27 17:26:25.012908, 468
2015-10-27 17:26:25.012973, 466
2015-10-27 17:26:25.028852, 467
2015-10-27 17:26:25.028943, 468
2015-10-27 17:26:25.029007, 467
2015-10-27 17:26:25.044615, 468
2015-10-27 17:26:25.044706, 467
2015-10-27 17:26:25.044772, 467
2015-10-27 17:26:25.060738, 469
2015-10-27 17:26:25.060834, 470
2015-10-27 17:26:25.060899, 469
2015-10-27 17:26:25.076775, 468
2015-10-27 17:26:25.076867, 468
2015-10-27 17:26:25.076931, 468
2015-10-27 17:26:25.092788, 467
2015-10-27 17:26:25.092882, 465
2015-10-27 17:26:25.092947, 466
2015-10-27 17:26:25.108715, 468
2015-10-27 17:26:25.108822, 470
2015-10-27 17:26:25.108888, 471
2015-10-27 17:26:25.124566, 472
2015-10-27 17:26:25.124675, 470
2015-10-27 17:26:25.124742, 470
2015-10-27 17:26:25.140679, 471
2015-10-27 17:26:25.140795, 471
2015-10-27 17:26:25.140871, 475
2015-10-27 17:26:25.140991, 475
2015-10-27 17:26:25.156651, 474
2015-10-27 17:26:25.156741, 474
2015-10-27 17:26:25.156807, 474
2015-10-27 17:26:25.172799, 474
2015-10-27 17:26:25.172889, 475
2015-10-27 17:26:25.172964, 477
2015-10-27 17:26:25.188614, 477
2015-10-27 17:26:25.188704, 476
2015-10-27 17:26:25.188769, 474
2015-10-27 17:26:25.204650, 475
2015-10-27 17:26:25.204739, 475
2015-10-27 17:26:25.204803, 477
2015-10-27 17:26:25.220740, 478
2015-10-27 17:26:25.220829, 478
2015-10-27 17:26:25.220894, 479
2015-10-27 17:26:25.236909, 478
2015-10-27 17:26:25.237003, 480
2015-10-27 17:26:25.237068, 480
2015-10-27 17:26:25.252837, 482
2015-10-27 17:26:25.253178, 485
2015-10-27 17:26:25.253297, 486
2015-10-27 17:26:25.268766, 485
2015-10-27 17:26:25.268856, 486
2015-10-27 17:26:25.268921, 486
2015-10-27 17:26:25.284818, 486
2015-10-27 17:26:25.284966, 488
2015-10-27 17:26:25.285035, 488
2015-10-27 17:26:25.300547, 487
2015-10-27 17:26:25.300640, 488
2015-10-27 17:26:25.300704, 489
2015-10-27 17:26:25.316536, 491
2015-10-27 17:26:25.316594, 491
2015-10-27 17:26:25.316630, 489
2015-10-27 17:26:25.332533, 490
2015-10-27 17:26:25.332589, 493
2015-10-27 17:26:25.332626, 496
2015-10-27 17:26:25.348480, 497
2015-10-27 17:26:25.348546, 499
2015-10-27 17:26:25.348583, 500
2015-10-27 17:26:25.364487, 504
2015-10-27 17:26:25.364555, 508
2015-10-27 17:26:25.364592, 509
2015-10-27 17:26:25.380458, 505
2015-10-27 17:26:25.380608, 495
2015-10-27 17:26:25.380869, 488
2015-10-27 17:26:25.381019, 488
2015-10-27 17:26:25.396848, 490
2015-10-27 17:26:25.397000, 490
2015-10-27 17:26:25.397084, 490
2015-10-27 17:26:25.412676, 489
2015-10-27 17:26:25.412767, 487
2015-10-27 17:26:25.412833, 487
2015-10-27 17:26:25.428686, 487
2015-10-27 17:26:25.428775, 488
2015-10-27 17:26:25.428839, 487
2015-10-27 17:26:25.444530, 488
2015-10-27 17:26:25.444618, 488
2015-10-27 17:26:25.444683, 490
2015-10-27 17:26:25.460823, 492
2015-10-27 17:26:25.460972, 492
2015-10-27 17:26:25.461074, 493
2015-10-27 17:26:25.476696, 503
2015-10-27 17:26:25.476785, 544
2015-10-27 17:26:25.476850, 637
2015-10-27 17:26:25.492635, 718
2015-10-27 17:26:25.492727, 716
2015-10-27 17:26:25.492791, 626
2015-10-27 17:26:25.508623, 472
2015-10-27 17:26:25.508714, 351
2015-10-27 17:26:25.508779, 231
2015-10-27 17:26:25.524629, 255
2015-10-27 17:26:25.524719, 369
2015-10-27 17:26:25.524785, 444
2015-10-27 17:26:25.540486, 477
2015-10-27 17:26:25.540552, 496
2015-10-27 17:26:25.540597, 505
2015-10-27 17:26:25.556464, 511
2015-10-27 17:26:25.556561, 514
2015-10-27 17:26:25.556628, 516
2015-10-27 17:26:25.572418, 520
2015-10-27 17:26:25.572473, 522
2015-10-27 17:26:25.572510, 526
2015-10-27 17:26:25.588641, 529
2015-10-27 17:26:25.588789, 532
2015-10-27 17:26:25.588904, 536
2015-10-27 17:26:25.604536, 539
2015-10-27 17:26:25.604644, 541
2015-10-27 17:26:25.604711, 541
2015-10-27 17:26:25.620679, 543
2015-10-27 17:26:25.620788, 545
2015-10-27 17:26:25.620854, 548
2015-10-27 17:26:25.636459, 551
2015-10-27 17:26:25.636616, 554
2015-10-27 17:26:25.636773, 556
2015-10-27 17:26:25.636993, 560
2015-10-27 17:26:25.652759, 565
2015-10-27 17:26:25.652849, 570
2015-10-27 17:26:25.653047, 575
2015-10-27 17:26:25.668787, 580
2015-10-27 17:26:25.668963, 586
2015-10-27 17:26:25.669089, 593
2015-10-27 17:26:25.684513, 601
2015-10-27 17:26:25.684603, 612
2015-10-27 17:26:25.684669, 620
2015-10-27 17:26:25.700738, 631
2015-10-27 17:26:25.700837, 644
2015-10-27 17:26:25.701017, 653
2015-10-27 17:26:25.716641, 659
2015-10-27 17:26:25.716731, 663
2015-10-27 17:26:25.716802, 667
2015-10-27 17:26:25.732447, 670
2015-10-27 17:26:25.732556, 669
2015-10-27 17:26:25.732798, 666
2015-10-27 17:26:25.748430, 660
2015-10-27 17:26:25.748617, 652
2015-10-27 17:26:25.748756, 641
2015-10-27 17:26:25.764520, 629
2015-10-27 17:26:25.764678, 611
2015-10-27 17:26:25.764831, 591
2015-10-27 17:26:25.780473, 570
2015-10-27 17:26:25.780538, 550
2015-10-27 17:26:25.780583, 533
2015-10-27 17:26:25.796556, 517
2015-10-27 17:26:25.796649, 500
2015-10-27 17:26:25.796715, 485
2015-10-27 17:26:25.812570, 473
2015-10-27 17:26:25.812662, 465
2015-10-27 17:26:25.812727, 456
2015-10-27 17:26:25.828513, 450
2015-10-27 17:26:25.828607, 448
2015-10-27 17:26:25.828672, 447
2015-10-27 17:26:25.844670, 444
2015-10-27 17:26:25.844832, 443
2015-10-27 17:26:25.844899, 442
2015-10-27 17:26:25.860583, 441
2015-10-27 17:26:25.860693, 441
2015-10-27 17:26:25.860759, 443
2015-10-27 17:26:25.876611, 444
2015-10-27 17:26:25.876721, 445
2015-10-27 17:26:25.876786, 444
2015-10-27 17:26:25.876848, 446
2015-10-27 17:26:25.892494, 449
2015-10-27 17:26:25.892582, 454
2015-10-27 17:26:25.892646, 457
2015-10-27 17:26:25.908892, 460
2015-10-27 17:26:25.909063, 461
2015-10-27 17:26:25.909139, 463
2015-10-27 17:26:25.924387, 464
2015-10-27 17:26:25.924441, 466
2015-10-27 17:26:25.924478, 468
2015-10-27 17:26:25.940397, 471
2015-10-27 17:26:25.940452, 473
2015-10-27 17:26:25.940490, 474
2015-10-27 17:26:25.956435, 475
2015-10-27 17:26:25.956491, 475
2015-10-27 17:26:25.956527, 476
2015-10-27 17:26:25.972476, 476
2015-10-27 17:26:25.972592, 475
2015-10-27 17:26:25.972693, 474
2015-10-27 17:26:25.988463, 474
2015-10-27 17:26:25.988625, 473
2015-10-27 17:26:25.988745, 470
2015-10-27 17:26:26.004419, 470
2015-10-27 17:26:26.004484, 471
2015-10-27 17:26:26.004528, 472
2015-10-27 17:26:26.020549, 471
2015-10-27 17:26:26.020640, 471
2015-10-27 17:26:26.020706, 469
2015-10-27 17:26:26.036668, 466
2015-10-27 17:26:26.036799, 467
2015-10-27 17:26:26.036864, 470
2015-10-27 17:26:26.052617, 472
2015-10-27 17:26:26.052710, 471
2015-10-27 17:26:26.052777, 471
2015-10-27 17:26:26.068516, 471
2015-10-27 17:26:26.068610, 472
2015-10-27 17:26:26.068676, 474
2015-10-27 17:26:26.084566, 475
2015-10-27 17:26:26.084730, 476
2015-10-27 17:26:26.084797, 478
2015-10-27 17:26:26.100509, 479
2015-10-27 17:26:26.100653, 479
2015-10-27 17:26:26.100721, 478
2015-10-27 17:26:26.116602, 478
2015-10-27 17:26:26.116763, 480
2015-10-27 17:26:26.116830, 478
2015-10-27 17:26:26.116892, 479
2015-10-27 17:26:26.132569, 478
2015-10-27 17:26:26.132659, 476
2015-10-27 17:26:26.132723, 476
2015-10-27 17:26:26.148577, 477
2015-10-27 17:26:26.148667, 479
2015-10-27 17:26:26.148733, 477
2015-10-27 17:26:26.164564, 476
2015-10-27 17:26:26.164697, 477
2015-10-27 17:26:26.164764, 478
2015-10-27 17:26:26.180585, 478
2015-10-27 17:26:26.180674, 479
2015-10-27 17:26:26.180739, 481
2015-10-27 17:26:26.196554, 482
2015-10-27 17:26:26.196857, 483
2015-10-27 17:26:26.196939, 483
2015-10-27 17:26:26.212767, 482
2015-10-27 17:26:26.212858, 483
2015-10-27 17:26:26.212938, 486
2015-10-27 17:26:26.228684, 487
2015-10-27 17:26:26.228826, 487
2015-10-27 17:26:26.228910, 487
2015-10-27 17:26:26.244619, 487
2015-10-27 17:26:26.244709, 488
2015-10-27 17:26:26.244773, 489
2015-10-27 17:26:26.260717, 489
2015-10-27 17:26:26.260810, 490
2015-10-27 17:26:26.260895, 492
2015-10-27 17:26:26.276363, 493
2015-10-27 17:26:26.276432, 494
2015-10-27 17:26:26.276480, 496
2015-10-27 17:26:26.292630, 496
2015-10-27 17:26:26.292751, 496
2015-10-27 17:26:26.292817, 497
2015-10-27 17:26:26.308666, 494
2015-10-27 17:26:26.308791, 495
2015-10-27 17:26:26.308858, 498
2015-10-27 17:26:26.324521, 501
2015-10-27 17:26:26.324631, 503
2015-10-27 17:26:26.324697, 504
2015-10-27 17:26:26.340352, 505
2015-10-27 17:26:26.340505, 509
2015-10-27 17:26:26.340723, 511
2015-10-27 17:26:26.356619, 511
2015-10-27 17:26:26.356795, 508
2015-10-27 17:26:26.356933, 499
2015-10-27 17:26:26.357066, 495
2015-10-27 17:26:26.372447, 493
2015-10-27 17:26:26.372542, 494
2015-10-27 17:26:26.372700, 493
2015-10-27 17:26:26.388734, 494
2015-10-27 17:26:26.388894, 496
2015-10-27 17:26:26.389041, 498
2015-10-27 17:26:26.404535, 495
2015-10-27 17:26:26.404707, 494
2015-10-27 17:26:26.404776, 494
2015-10-27 17:26:26.420653, 495
2015-10-27 17:26:26.420897, 495
2015-10-27 17:26:26.421129, 495
2015-10-27 17:26:26.436640, 497
2015-10-27 17:26:26.436738, 499
2015-10-27 17:26:26.436925, 501
2015-10-27 17:26:26.452485, 505
2015-10-27 17:26:26.452576, 515
2015-10-27 17:26:26.452640, 543
2015-10-27 17:26:26.468409, 618
2015-10-27 17:26:26.468500, 719
2015-10-27 17:26:26.468565, 758
2015-10-27 17:26:26.484364, 705
2015-10-27 17:26:26.484456, 548
2015-10-27 17:26:26.484521, 405
2015-10-27 17:26:26.500440, 270
2015-10-27 17:26:26.500532, 230
2015-10-27 17:26:26.500598, 334
2015-10-27 17:26:26.516410, 434
2015-10-27 17:26:26.516504, 484
2015-10-27 17:26:26.516569, 508
2015-10-27 17:26:26.532388, 521
2015-10-27 17:26:26.532568, 525
2015-10-27 17:26:26.532662, 528
2015-10-27 17:26:26.548386, 533
2015-10-27 17:26:26.548479, 536
2015-10-27 17:26:26.548544, 539
2015-10-27 17:26:26.564406, 541
2015-10-27 17:26:26.564515, 544
2015-10-27 17:26:26.564581, 546
2015-10-27 17:26:26.580377, 548
2015-10-27 17:26:26.580485, 552
2015-10-27 17:26:26.580551, 553
2015-10-27 17:26:26.596312, 553
2015-10-27 17:26:26.596421, 555
2015-10-27 17:26:26.596487, 556
2015-10-27 17:26:26.596549, 559
2015-10-27 17:26:26.612337, 562
2015-10-27 17:26:26.612427, 564
2015-10-27 17:26:26.612492, 567
2015-10-27 17:26:26.628575, 571
2015-10-27 17:26:26.628739, 577
2015-10-27 17:26:26.628827, 581
2015-10-27 17:26:26.644350, 585
2015-10-27 17:26:26.644524, 591
2015-10-27 17:26:26.644714, 597
2015-10-27 17:26:26.660456, 605
2015-10-27 17:26:26.660669, 612
2015-10-27 17:26:26.660820, 622
2015-10-27 17:26:26.676504, 634
2015-10-27 17:26:26.676594, 646
2015-10-27 17:26:26.676660, 655
2015-10-27 17:26:26.692446, 663
2015-10-27 17:26:26.692536, 669
2015-10-27 17:26:26.692742, 675
2015-10-27 17:26:26.708275, 681
2015-10-27 17:26:26.708366, 684
2015-10-27 17:26:26.708445, 685
2015-10-27 17:26:26.724377, 682
2015-10-27 17:26:26.724467, 678
2015-10-27 17:26:26.724533, 671
2015-10-27 17:26:26.740410, 661
2015-10-27 17:26:26.740501, 648
2015-10-27 17:26:26.740566, 633
2015-10-27 17:26:26.756242, 614
2015-10-27 17:26:26.756404, 592
2015-10-27 17:26:26.756517, 571
2015-10-27 17:26:26.772339, 551
2015-10-27 17:26:26.772450, 532
2015-10-27 17:26:26.772517, 515
2015-10-27 17:26:26.788228, 498
2015-10-27 17:26:26.788439, 487
2015-10-27 17:26:26.788518, 476
2015-10-27 17:26:26.804406, 466
2015-10-27 17:26:26.804568, 461
2015-10-27 17:26:26.804635, 456
2015-10-27 17:26:26.820328, 451
2015-10-27 17:26:26.820492, 447
2015-10-27 17:26:26.820559, 446
2015-10-27 17:26:26.836315, 447
2015-10-27 17:26:26.836424, 445
2015-10-27 17:26:26.836489, 442
2015-10-27 17:26:26.852380, 442
2015-10-27 17:26:26.852543, 444
2015-10-27 17:26:26.852610, 447
2015-10-27 17:26:26.852672, 449
2015-10-27 17:26:26.868217, 452
2015-10-27 17:26:26.868307, 457
2015-10-27 17:26:26.868371, 461
2015-10-27 17:26:26.884263, 463
2015-10-27 17:26:26.884508, 464
2015-10-27 17:26:26.884739, 466
2015-10-27 17:26:26.900259, 469
2015-10-27 17:26:26.900348, 470
2015-10-27 17:26:26.900413, 471
2015-10-27 17:26:26.916327, 474
2015-10-27 17:26:26.916416, 476
2015-10-27 17:26:26.916481, 478
2015-10-27 17:26:26.932442, 478
2015-10-27 17:26:26.932532, 476
2015-10-27 17:26:26.932597, 477
2015-10-27 17:26:26.948508, 478
2015-10-27 17:26:26.948613, 478
2015-10-27 17:26:26.948686, 478
2015-10-27 17:26:26.964195, 478
2015-10-27 17:26:26.964348, 478
2015-10-27 17:26:26.964483, 477
2015-10-27 17:26:26.980434, 476
2015-10-27 17:26:26.980523, 474
2015-10-27 17:26:26.980587, 474
2015-10-27 17:26:26.996144, 474
2015-10-27 17:26:26.996235, 473
2015-10-27 17:26:26.996301, 472
2015-10-27 17:26:27.012113, 471
2015-10-27 17:26:27.012194, 473
2015-10-27 17:26:27.012251, 475
2015-10-27 17:26:27.028157, 475
2015-10-27 17:26:27.028325, 474
2015-10-27 17:26:27.028460, 473
2015-10-27 17:26:27.044233, 472
2015-10-27 17:26:27.044326, 472
2015-10-27 17:26:27.044392, 477
2015-10-27 17:26:27.060294, 477
2015-10-27 17:26:27.060452, 476
2015-10-27 17:26:27.060517, 476
2015-10-27 17:26:27.076338, 475
2015-10-27 17:26:27.076448, 474
2015-10-27 17:26:27.076515, 476
2015-10-27 17:26:27.092089, 475
2015-10-27 17:26:27.092206, 474
2015-10-27 17:26:27.092273, 474
2015-10-27 17:26:27.092335, 478
2015-10-27 17:26:27.108263, 479
2015-10-27 17:26:27.108352, 480
2015-10-27 17:26:27.108417, 480
2015-10-27 17:26:27.124111, 479
2015-10-27 17:26:27.124205, 477
2015-10-27 17:26:27.124271, 478
2015-10-27 17:26:27.140427, 479
2015-10-27 17:26:27.140578, 480
2015-10-27 17:26:27.140707, 481
2015-10-27 17:26:27.156309, 481
2015-10-27 17:26:27.156425, 480
2015-10-27 17:26:27.156490, 481
2015-10-27 17:26:27.172096, 483
2015-10-27 17:26:27.172188, 484
2015-10-27 17:26:27.172253, 484
2015-10-27 17:26:27.188475, 482
2015-10-27 17:26:27.188577, 481
2015-10-27 17:26:27.188643, 485
2015-10-27 17:26:27.204100, 487
2015-10-27 17:26:27.204195, 488
2015-10-27 17:26:27.204261, 488
2015-10-27 17:26:27.220361, 487
2015-10-27 17:26:27.220451, 488
2015-10-27 17:26:27.220515, 488
2015-10-27 17:26:27.236065, 486
2015-10-27 17:26:27.236156, 487
2015-10-27 17:26:27.236221, 489
2015-10-27 17:26:27.252178, 490
2015-10-27 17:26:27.252269, 491
2015-10-27 17:26:27.252333, 492
2015-10-27 17:26:27.268183, 491
2015-10-27 17:26:27.268276, 491
2015-10-27 17:26:27.268341, 489
2015-10-27 17:26:27.284197, 491
2015-10-27 17:26:27.284324, 496
2015-10-27 17:26:27.284390, 496
2015-10-27 17:26:27.300206, 493
2015-10-27 17:26:27.300317, 494
2015-10-27 17:26:27.300383, 497
2015-10-27 17:26:27.316198, 499
2015-10-27 17:26:27.316307, 504
2015-10-27 17:26:27.316373, 508
2015-10-27 17:26:27.332007, 511
2015-10-27 17:26:27.332117, 515
2015-10-27 17:26:27.332183, 514
2015-10-27 17:26:27.332246, 511
2015-10-27 17:26:27.348172, 504
2015-10-27 17:26:27.348261, 496
2015-10-27 17:26:27.348325, 493
2015-10-27 17:26:27.364204, 493
2015-10-27 17:26:27.364293, 495
2015-10-27 17:26:27.364358, 493
2015-10-27 17:26:27.380177, 493
2015-10-27 17:26:27.380266, 496
2015-10-27 17:26:27.380331, 497
2015-10-27 17:26:27.396391, 497
2015-10-27 17:26:27.396533, 498
2015-10-27 17:26:27.396633, 500
2015-10-27 17:26:27.412207, 503
2015-10-27 17:26:27.412324, 502
2015-10-27 17:26:27.412390, 504
2015-10-27 17:26:27.428255, 506
2015-10-27 17:26:27.428344, 508
2015-10-27 17:26:27.428409, 508
2015-10-27 17:26:27.444142, 509
2015-10-27 17:26:27.444233, 520
2015-10-27 17:26:27.444298, 555
2015-10-27 17:26:27.460113, 644
2015-10-27 17:26:27.460205, 744
2015-10-27 17:26:27.460282, 766
2015-10-27 17:26:27.476137, 688
2015-10-27 17:26:27.476227, 516
2015-10-27 17:26:27.476292, 374
2015-10-27 17:26:27.492220, 235
2015-10-27 17:26:27.492350, 235
2015-10-27 17:26:27.492416, 356
2015-10-27 17:26:27.507946, 448
2015-10-27 17:26:27.508042, 490
2015-10-27 17:26:27.508110, 512
2015-10-27 17:26:27.524094, 524
2015-10-27 17:26:27.524188, 528
2015-10-27 17:26:27.524253, 531
2015-10-27 17:26:27.539939, 534
2015-10-27 17:26:27.540058, 538
2015-10-27 17:26:27.540215, 541
2015-10-27 17:26:27.556051, 545
2015-10-27 17:26:27.556160, 549
2015-10-27 17:26:27.556228, 550
2015-10-27 17:26:27.572106, 550
2015-10-27 17:26:27.572217, 551
2015-10-27 17:26:27.572283, 551
2015-10-27 17:26:27.572345, 552
2015-10-27 17:26:27.588116, 554
2015-10-27 17:26:27.588397, 560
2015-10-27 17:26:27.588479, 563
2015-10-27 17:26:27.604139, 565
2015-10-27 17:26:27.604228, 567
2015-10-27 17:26:27.604293, 572
2015-10-27 17:26:27.620112, 577
2015-10-27 17:26:27.620201, 582
2015-10-27 17:26:27.620266, 586
2015-10-27 17:26:27.636111, 589
2015-10-27 17:26:27.636201, 596
2015-10-27 17:26:27.636265, 604
2015-10-27 17:26:27.651907, 613
2015-10-27 17:26:27.651996, 621
2015-10-27 17:26:27.652062, 629
2015-10-27 17:26:27.668060, 639
2015-10-27 17:26:27.668253, 650
2015-10-27 17:26:27.668335, 661
2015-10-27 17:26:27.684118, 670
2015-10-27 17:26:27.684241, 678
2015-10-27 17:26:27.684307, 685
2015-10-27 17:26:27.700179, 691
2015-10-27 17:26:27.700300, 694
2015-10-27 17:26:27.700366, 692
2015-10-27 17:26:27.716062, 688
2015-10-27 17:26:27.716154, 683
2015-10-27 17:26:27.716220, 675
2015-10-27 17:26:27.732079, 666
2015-10-27 17:26:27.732177, 654
2015-10-27 17:26:27.732243, 638
2015-10-27 17:26:27.748188, 618
2015-10-27 17:26:27.748281, 596
2015-10-27 17:26:27.748345, 573
2015-10-27 17:26:27.764126, 553
2015-10-27 17:26:27.764217, 533
2015-10-27 17:26:27.764281, 515
2015-10-27 17:26:27.780187, 499
2015-10-27 17:26:27.780300, 484
2015-10-27 17:26:27.780386, 473
2015-10-27 17:26:27.796025, 466
2015-10-27 17:26:27.796206, 460
2015-10-27 17:26:27.796428, 454
2015-10-27 17:26:27.811942, 449
2015-10-27 17:26:27.812051, 449
2015-10-27 17:26:27.812117, 448
2015-10-27 17:26:27.828045, 443
2015-10-27 17:26:27.828200, 443
2015-10-27 17:26:27.828267, 445
2015-10-27 17:26:27.828331, 448
2015-10-27 17:26:27.843892, 449
2015-10-27 17:26:27.843981, 450
2015-10-27 17:26:27.844046, 450
2015-10-27 17:26:27.859876, 450
2015-10-27 17:26:27.859987, 451
2015-10-27 17:26:27.860109, 455
2015-10-27 17:26:27.876108, 459
2015-10-27 17:26:27.876197, 462
2015-10-27 17:26:27.876262, 465
2015-10-27 17:26:27.892192, 467
2015-10-27 17:26:27.892281, 468
2015-10-27 17:26:27.892347, 469
2015-10-27 17:26:27.908087, 475
2015-10-27 17:26:27.908206, 476
2015-10-27 17:26:27.908271, 476
2015-10-27 17:26:27.923940, 475
2015-10-27 17:26:27.924037, 476
2015-10-27 17:26:27.924084, 478
2015-10-27 17:26:27.939937, 477
2015-10-27 17:26:27.940029, 477
2015-10-27 17:26:27.940094, 477
2015-10-27 17:26:27.956109, 476
2015-10-27 17:26:27.956199, 474
2015-10-27 17:26:27.956264, 472
2015-10-27 17:26:27.971898, 472
2015-10-27 17:26:27.971988, 472
2015-10-27 17:26:27.972053, 473
2015-10-27 17:26:27.987939, 472
2015-10-27 17:26:27.988058, 471
2015-10-27 17:26:27.988147, 471
2015-10-27 17:26:28.003852, 475
2015-10-27 17:26:28.003932, 476
2015-10-27 17:26:28.004064, 478
2015-10-27 17:26:28.019839, 478
2015-10-27 17:26:28.019908, 475
2015-10-27 17:26:28.019954, 474
2015-10-27 17:26:28.035862, 474
2015-10-27 17:26:28.036272, 473
2015-10-27 17:26:28.036325, 473
2015-10-27 17:26:28.051845, 474
2015-10-27 17:26:28.051952, 476
2015-10-27 17:26:28.052019, 477
2015-10-27 17:26:28.068037, 477
2015-10-27 17:26:28.068169, 477
2015-10-27 17:26:28.068257, 476
2015-10-27 17:26:28.068322, 476
2015-10-27 17:26:28.084143, 477
2015-10-27 17:26:28.084233, 478
2015-10-27 17:26:28.084298, 479
2015-10-27 17:26:28.100027, 477
2015-10-27 17:26:28.100118, 478
2015-10-27 17:26:28.100182, 481
2015-10-27 17:26:28.115890, 482
2015-10-27 17:26:28.115979, 480
2015-10-27 17:26:28.116140, 481
2015-10-27 17:26:28.132528, 483
2015-10-27 17:26:28.132687, 483
2015-10-27 17:26:28.132815, 482
2015-10-27 17:26:28.147968, 482
2015-10-27 17:26:28.148057, 482
2015-10-27 17:26:28.148121, 484
2015-10-27 17:26:28.164106, 485
2015-10-27 17:26:28.164196, 487
2015-10-27 17:26:28.164261, 487
2015-10-27 17:26:28.179972, 487
2015-10-27 17:26:28.180064, 488
2015-10-27 17:26:28.180129, 489
2015-10-27 17:26:28.196125, 491
2015-10-27 17:26:28.196216, 493
2015-10-27 17:26:28.196281, 490
2015-10-27 17:26:28.211878, 487
2015-10-27 17:26:28.211971, 487
2015-10-27 17:26:28.212036, 490
2015-10-27 17:26:28.228100, 492
2015-10-27 17:26:28.228196, 491
2015-10-27 17:26:28.228263, 493
2015-10-27 17:26:28.243975, 494
2015-10-27 17:26:28.244102, 496
2015-10-27 17:26:28.244168, 496
2015-10-27 17:26:28.260063, 495
2015-10-27 17:26:28.260209, 498
2015-10-27 17:26:28.260275, 499
2015-10-27 17:26:28.275759, 497
2015-10-27 17:26:28.275870, 496
2015-10-27 17:26:28.275944, 497
2015-10-27 17:26:28.291930, 499
2015-10-27 17:26:28.292037, 500
2015-10-27 17:26:28.292103, 501
2015-10-27 17:26:28.307765, 499
2015-10-27 17:26:28.307884, 496
2015-10-27 17:26:28.307952, 499
2015-10-27 17:26:28.308016, 504
2015-10-27 17:26:28.323815, 508
2015-10-27 17:26:28.323888, 510
2015-10-27 17:26:28.323944, 512
2015-10-27 17:26:28.339781, 515
2015-10-27 17:26:28.339835, 521
2015-10-27 17:26:28.339873, 521
2015-10-27 17:26:28.355760, 514
2015-10-27 17:26:28.355846, 503
2015-10-27 17:26:28.355911, 497
2015-10-27 17:26:28.371699, 494
2015-10-27 17:26:28.371751, 496
2015-10-27 17:26:28.371789, 496
2015-10-27 17:26:28.387923, 497
2015-10-27 17:26:28.388016, 499
2015-10-27 17:26:28.388090, 498
2015-10-27 17:26:28.403750, 496
2015-10-27 17:26:28.403843, 496
2015-10-27 17:26:28.403914, 498
2015-10-27 17:26:28.419739, 500
2015-10-27 17:26:28.419834, 500
2015-10-27 17:26:28.419958, 502
2015-10-27 17:26:28.436398, 505
2015-10-27 17:26:28.436507, 506
2015-10-27 17:26:28.436576, 506
2015-10-27 17:26:28.451760, 508
2015-10-27 17:26:28.451876, 517
2015-10-27 17:26:28.452258, 543
2015-10-27 17:26:28.467903, 620
2015-10-27 17:26:28.467980, 728
2015-10-27 17:26:28.468034, 767
2015-10-27 17:26:28.483695, 714
2015-10-27 17:26:28.483759, 550
2015-10-27 17:26:28.483798, 396
2015-10-27 17:26:28.499904, 253
2015-10-27 17:26:28.499997, 201
2015-10-27 17:26:28.500063, 310
2015-10-27 17:26:28.515721, 423
2015-10-27 17:26:28.515830, 475
2015-10-27 17:26:28.515896, 499
2015-10-27 17:26:28.531850, 514
2015-10-27 17:26:28.531958, 524
2015-10-27 17:26:28.532024, 529
2015-10-27 17:26:28.547752, 533
2015-10-27 17:26:28.547861, 538
2015-10-27 17:26:28.547954, 541
2015-10-27 17:26:28.548090, 544
2015-10-27 17:26:28.563748, 546
2015-10-27 17:26:28.563821, 547
2015-10-27 17:26:28.563874, 548
2015-10-27 17:26:28.579745, 550
2015-10-27 17:26:28.579838, 554
2015-10-27 17:26:28.579902, 557
2015-10-27 17:26:28.595793, 559
2015-10-27 17:26:28.595916, 562
2015-10-27 17:26:28.596019, 563
2015-10-27 17:26:28.611787, 565
2015-10-27 17:26:28.611929, 567
2015-10-27 17:26:28.612059, 569
2015-10-27 17:26:28.627742, 577
2015-10-27 17:26:28.627832, 583
2015-10-27 17:26:28.627907, 588
2015-10-27 17:26:28.643715, 591
2015-10-27 17:26:28.643806, 596
2015-10-27 17:26:28.643872, 601
2015-10-27 17:26:28.659830, 611
2015-10-27 17:26:28.659921, 618
2015-10-27 17:26:28.659985, 625
2015-10-27 17:26:28.675945, 635
2015-10-27 17:26:28.676037, 643
2015-10-27 17:26:28.676102, 654
2015-10-27 17:26:28.691687, 666
2015-10-27 17:26:28.691778, 675
2015-10-27 17:26:28.691843, 683
2015-10-27 17:26:28.707804, 688
2015-10-27 17:26:28.707898, 689
2015-10-27 17:26:28.707964, 688
2015-10-27 17:26:28.723809, 685
2015-10-27 17:26:28.723903, 681
2015-10-27 17:26:28.723968, 678
2015-10-27 17:26:28.739822, 667
2015-10-27 17:26:28.739944, 654
2015-10-27 17:26:28.740010, 641
2015-10-27 17:26:28.755867, 622
2015-10-27 17:26:28.756157, 601
2015-10-27 17:26:28.756229, 580
2015-10-27 17:26:28.771647, 558
2015-10-27 17:26:28.771754, 540
2015-10-27 17:26:28.771820, 523
2015-10-27 17:26:28.787720, 506
2015-10-27 17:26:28.787829, 492
2015-10-27 17:26:28.787894, 482
2015-10-27 17:26:28.787957, 473
2015-10-27 17:26:28.803968, 465
2015-10-27 17:26:28.804058, 458
2015-10-27 17:26:28.804123, 453
2015-10-27 17:26:28.819782, 450
2015-10-27 17:26:28.819872, 447
2015-10-27 17:26:28.819936, 446
2015-10-27 17:26:28.835947, 445
2015-10-27 17:26:28.836037, 444
2015-10-27 17:26:28.836101, 446
2015-10-27 17:26:28.851768, 449
2015-10-27 17:26:28.851858, 451
2015-10-27 17:26:28.851923, 452
2015-10-27 17:26:28.868044, 456
2015-10-27 17:26:28.868135, 458
2015-10-27 17:26:28.868201, 459
2015-10-27 17:26:28.883918, 462
2015-10-27 17:26:28.884009, 466
2015-10-27 17:26:28.884074, 466
2015-10-27 17:26:28.899771, 466
2015-10-27 17:26:28.899861, 467
2015-10-27 17:26:28.899925, 469
2015-10-27 17:26:28.915773, 470
2015-10-27 17:26:28.915864, 472
2015-10-27 17:26:28.915928, 476
2015-10-27 17:26:28.931707, 478
2015-10-27 17:26:28.931857, 477
2015-10-27 17:26:28.931987, 475
2015-10-27 17:26:28.947611, 476
2015-10-27 17:26:28.947702, 476
2015-10-27 17:26:28.947768, 476
2015-10-27 17:26:28.963526, 477
2015-10-27 17:26:28.963583, 476
2015-10-27 17:26:28.963621, 475
2015-10-27 17:26:28.979608, 474
2015-10-27 17:26:28.979676, 473
2015-10-27 17:26:28.979720, 476
2015-10-27 17:26:28.995645, 476
2015-10-27 17:26:28.995704, 473
2015-10-27 17:26:28.995741, 470
2015-10-27 17:26:29.011602, 471
2015-10-27 17:26:29.011674, 473
2015-10-27 17:26:29.011712, 474
2015-10-27 17:26:29.027487, 474
2015-10-27 17:26:29.027595, 472
2015-10-27 17:26:29.027662, 474
2015-10-27 17:26:29.043496, 476
2015-10-27 17:26:29.043598, 475
2015-10-27 17:26:29.043665, 474
2015-10-27 17:26:29.043731, 475
2015-10-27 17:26:29.059529, 475
2015-10-27 17:26:29.059582, 476
2015-10-27 17:26:29.059620, 477
2015-10-27 17:26:29.075623, 478
2015-10-27 17:26:29.075722, 477
2015-10-27 17:26:29.075788, 475
2015-10-27 17:26:29.091567, 476
2015-10-27 17:26:29.091672, 477
2015-10-27 17:26:29.091743, 476
2015-10-27 17:26:29.107563, 476
2015-10-27 17:26:29.107685, 477
2015-10-27 17:26:29.107765, 478
2015-10-27 17:26:29.123751, 481
2015-10-27 17:26:29.123950, 484
2015-10-27 17:26:29.124073, 484
2015-10-27 17:26:29.139623, 483
2015-10-27 17:26:29.139760, 480
2015-10-27 17:26:29.139868, 480
2015-10-27 17:26:29.155594, 480
2015-10-27 17:26:29.155683, 480
2015-10-27 17:26:29.155787, 482
2015-10-27 17:26:29.171624, 484
2015-10-27 17:26:29.171774, 485
2015-10-27 17:26:29.171885, 485
2015-10-27 17:26:29.187745, 485
2015-10-27 17:26:29.187892, 487
2015-10-27 17:26:29.188020, 487
2015-10-27 17:26:29.203703, 486
2015-10-27 17:26:29.203795, 487
2015-10-27 17:26:29.203860, 488
2015-10-27 17:26:29.219559, 488
2015-10-27 17:26:29.219655, 488
2015-10-27 17:26:29.219720, 490
2015-10-27 17:26:29.235575, 493
2015-10-27 17:26:29.235716, 492
2015-10-27 17:26:29.235814, 493
2015-10-27 17:26:29.251538, 497
2015-10-27 17:26:29.251647, 498
2015-10-27 17:26:29.251714, 497
2015-10-27 17:26:29.267601, 499
2015-10-27 17:26:29.267711, 500
2015-10-27 17:26:29.267777, 500
2015-10-27 17:26:29.283492, 499
2015-10-27 17:26:29.283583, 498
2015-10-27 17:26:29.283637, 499
2015-10-27 17:26:29.283687, 504
2015-10-27 17:26:29.299725, 506
2015-10-27 17:26:29.299815, 505
2015-10-27 17:26:29.299880, 504
2015-10-27 17:26:29.315711, 507
2015-10-27 17:26:29.315802, 513
2015-10-27 17:26:29.315867, 517
2015-10-27 17:26:29.331590, 519
2015-10-27 17:26:29.331679, 515
2015-10-27 17:26:29.331744, 505
2015-10-27 17:26:29.347615, 496
2015-10-27 17:26:29.347773, 495
2015-10-27 17:26:29.348041, 497
2015-10-27 17:26:29.363525, 498
2015-10-27 17:26:29.363614, 498
2015-10-27 17:26:29.363680, 497
2015-10-27 17:26:29.379503, 498
2015-10-27 17:26:29.379593, 500
2015-10-27 17:26:29.379658, 500
2015-10-27 17:26:29.395690, 499
2015-10-27 17:26:29.395783, 497
2015-10-27 17:26:29.395952, 497
2015-10-27 17:26:29.411682, 498
2015-10-27 17:26:29.411775, 499
2015-10-27 17:26:29.411840, 499
2015-10-27 17:26:29.427763, 502
2015-10-27 17:26:29.428052, 507
2015-10-27 17:26:29.428133, 519
2015-10-27 17:26:29.443726, 553
2015-10-27 17:26:29.443856, 635
2015-10-27 17:26:29.443922, 731
2015-10-27 17:26:29.459737, 738
2015-10-27 17:26:29.459869, 645
2015-10-27 17:26:29.459935, 472
2015-10-27 17:26:29.475596, 349
2015-10-27 17:26:29.475690, 229
2015-10-27 17:26:29.475755, 229
2015-10-27 17:26:29.491604, 345
2015-10-27 17:26:29.491712, 439
2015-10-27 17:26:29.491778, 482
2015-10-27 17:26:29.507624, 507
2015-10-27 17:26:29.507787, 522
2015-10-27 17:26:29.507853, 528
2015-10-27 17:26:29.523659, 528
2015-10-27 17:26:29.523813, 529
2015-10-27 17:26:29.523880, 534
2015-10-27 17:26:29.523943, 538
2015-10-27 17:26:29.539697, 540
2015-10-27 17:26:29.539787, 540
2015-10-27 17:26:29.539851, 544
2015-10-27 17:26:29.555788, 545
2015-10-27 17:26:29.555880, 548
2015-10-27 17:26:29.555944, 549
2015-10-27 17:26:29.571820, 550
2015-10-27 17:26:29.572039, 552
2015-10-27 17:26:29.572123, 556
2015-10-27 17:26:29.587646, 559
2015-10-27 17:26:29.587735, 560
2015-10-27 17:26:29.587801, 562
2015-10-27 17:26:29.603757, 563
2015-10-27 17:26:29.603847, 567
2015-10-27 17:26:29.603912, 574
2015-10-27 17:26:29.619503, 579
2015-10-27 17:26:29.619593, 582
2015-10-27 17:26:29.619659, 588
2015-10-27 17:26:29.635439, 595
2015-10-27 17:26:29.635494, 604
2015-10-27 17:26:29.635531, 610
2015-10-27 17:26:29.651484, 619
2015-10-27 17:26:29.651547, 630
2015-10-27 17:26:29.651591, 638
2015-10-27 17:26:29.667388, 648
2015-10-27 17:26:29.667485, 659
2015-10-27 17:26:29.667562, 669
2015-10-27 17:26:29.683338, 674
2015-10-27 17:26:29.683432, 676
2015-10-27 17:26:29.683472, 676
2015-10-27 17:26:29.700170, 674
2015-10-27 17:26:29.700254, 673
2015-10-27 17:26:29.700315, 669
2015-10-27 17:26:29.715303, 661
2015-10-27 17:26:29.715358, 652
2015-10-27 17:26:29.715396, 637
2015-10-27 17:26:29.731319, 621
2015-10-27 17:26:29.731385, 604
2015-10-27 17:26:29.731423, 583
2015-10-27 17:26:29.747332, 563
2015-10-27 17:26:29.747399, 543
2015-10-27 17:26:29.747436, 527
2015-10-27 17:26:29.763297, 510
2015-10-27 17:26:29.763365, 496
2015-10-27 17:26:29.763403, 485
2015-10-27 17:26:29.763440, 474
2015-10-27 17:26:29.779313, 465
2015-10-27 17:26:29.779367, 459
2015-10-27 17:26:29.779403, 455
2015-10-27 17:26:29.795355, 451
2015-10-27 17:26:29.795409, 448
2015-10-27 17:26:29.795446, 445
2015-10-27 17:26:29.811323, 444
2015-10-27 17:26:29.811415, 446
2015-10-27 17:26:29.811488, 446
2015-10-27 17:26:29.830446, 446
2015-10-27 17:26:29.830539, 447
2015-10-27 17:26:29.830609, 450
2015-10-27 17:26:29.843446, 452
2015-10-27 17:26:29.843562, 454
2015-10-27 17:26:29.843648, 457
2015-10-27 17:26:29.859441, 458
2015-10-27 17:26:29.859544, 459
2015-10-27 17:26:29.859583, 461
2015-10-27 17:26:29.875275, 465
2015-10-27 17:26:29.875361, 466
2015-10-27 17:26:29.875425, 467
2015-10-27 17:26:29.891309, 469
2015-10-27 17:26:29.891366, 469
2015-10-27 17:26:29.891404, 473
2015-10-27 17:26:29.907619, 473
2015-10-27 17:26:29.907817, 474
2015-10-27 17:26:29.907986, 477
2015-10-27 17:26:29.923497, 479
2015-10-27 17:26:29.923590, 478
2015-10-27 17:26:29.923655, 477
2015-10-27 17:26:29.939541, 478
2015-10-27 17:26:29.939635, 478
2015-10-27 17:26:29.939701, 478
2015-10-27 17:26:29.955450, 476
2015-10-27 17:26:29.955549, 475
2015-10-27 17:26:29.955614, 475
2015-10-27 17:26:29.971494, 476
2015-10-27 17:26:29.971605, 477
2015-10-27 17:26:29.971671, 476
2015-10-27 17:26:29.987461, 477
2015-10-27 17:26:29.987570, 477
2015-10-27 17:26:29.987636, 474
2015-10-27 17:26:30.003326, 473
2015-10-27 17:26:30.003437, 474
2015-10-27 17:26:30.003504, 475
2015-10-27 17:26:30.019327, 474
2015-10-27 17:26:30.019438, 474
2015-10-27 17:26:30.019505, 476
2015-10-27 17:26:30.019569, 477
2015-10-27 17:26:30.035427, 478
2015-10-27 17:26:30.035518, 479
2015-10-27 17:26:30.035583, 480
2015-10-27 17:26:30.051394, 480
2015-10-27 17:26:30.051581, 480
2015-10-27 17:26:30.051650, 478
2015-10-27 17:26:30.067381, 479
2015-10-27 17:26:30.067472, 481
2015-10-27 17:26:30.067540, 481
2015-10-27 17:26:30.083331, 480
2015-10-27 17:26:30.083424, 482
2015-10-27 17:26:30.083499, 481
2015-10-27 17:26:30.099410, 480
2015-10-27 17:26:30.099569, 478
2015-10-27 17:26:30.099692, 476
2015-10-27 17:26:30.115385, 480
2015-10-27 17:26:30.115476, 486
2015-10-27 17:26:30.115542, 489
2015-10-27 17:26:30.131620, 488
2015-10-27 17:26:30.131866, 484
2015-10-27 17:26:30.131999, 484
2015-10-27 17:26:30.147314, 486
2015-10-27 17:26:30.147433, 487
2015-10-27 17:26:30.147525, 488
2015-10-27 17:26:30.163364, 488
2015-10-27 17:26:30.163473, 487
2015-10-27 17:26:30.163563, 485
2015-10-27 17:26:30.179271, 484
2015-10-27 17:26:30.179365, 485
2015-10-27 17:26:30.179457, 487
2015-10-27 17:26:30.195282, 489
2015-10-27 17:26:30.195377, 491
2015-10-27 17:26:30.195444, 490
2015-10-27 17:26:30.211287, 491
2015-10-27 17:26:30.211400, 492
2015-10-27 17:26:30.211480, 493
2015-10-27 17:26:30.227252, 494
2015-10-27 17:26:30.227331, 494
2015-10-27 17:26:30.227377, 496
2015-10-27 17:26:30.243274, 499
2015-10-27 17:26:30.243380, 501
2015-10-27 17:26:30.243447, 500
2015-10-27 17:26:30.259279, 497
2015-10-27 17:26:30.259390, 497
2015-10-27 17:26:30.259456, 502
2015-10-27 17:26:30.259519, 506
2015-10-27 17:26:30.275333, 505
2015-10-27 17:26:30.275423, 504
2015-10-27 17:26:30.275489, 506
2015-10-27 17:26:30.291681, 508
2015-10-27 17:26:30.291813, 510
2015-10-27 17:26:30.292467, 513
2015-10-27 17:26:30.307458, 509
2015-10-27 17:26:30.307557, 500
2015-10-27 17:26:30.307673, 493
2015-10-27 17:26:30.323380, 490
2015-10-27 17:26:30.323529, 493
2015-10-27 17:26:30.323715, 493
2015-10-27 17:26:30.339544, 493
2015-10-27 17:26:30.339635, 494
2015-10-27 17:26:30.339699, 496
2015-10-27 17:26:30.355591, 496
2015-10-27 17:26:30.355707, 495
2015-10-27 17:26:30.355771, 496
2015-10-27 17:26:30.371286, 498
2015-10-27 17:26:30.371368, 496
2015-10-27 17:26:30.371414, 495
2015-10-27 17:26:30.387286, 496
2015-10-27 17:26:30.387377, 497
2015-10-27 17:26:30.387443, 497
2015-10-27 17:26:30.403545, 501
2015-10-27 17:26:30.403663, 513
2015-10-27 17:26:30.403730, 551
2015-10-27 17:26:30.419473, 633
2015-10-27 17:26:30.419690, 709
2015-10-27 17:26:30.419765, 698
2015-10-27 17:26:30.435450, 600
2015-10-27 17:26:30.435581, 445
2015-10-27 17:26:30.435647, 342
2015-10-27 17:26:30.451445, 239
2015-10-27 17:26:30.451539, 257
2015-10-27 17:26:30.451604, 367
2015-10-27 17:26:30.467315, 447
2015-10-27 17:26:30.467424, 483
2015-10-27 17:26:30.467490, 504
2015-10-27 17:26:30.483520, 516
2015-10-27 17:26:30.483631, 524
2015-10-27 17:26:30.483697, 531
2015-10-27 17:26:30.499185, 536
2015-10-27 17:26:30.499264, 538
2015-10-27 17:26:30.499309, 537
2015-10-27 17:26:30.499352, 539
2015-10-27 17:26:30.515410, 540
2015-10-27 17:26:30.515500, 542
2015-10-27 17:26:30.515564, 545
2015-10-27 17:26:30.531661, 547
2015-10-27 17:26:30.531759, 550
2015-10-27 17:26:30.531847, 552
2015-10-27 17:26:30.547462, 554
2015-10-27 17:26:30.547551, 554
2015-10-27 17:26:30.547616, 556
2015-10-27 17:26:30.563397, 559
2015-10-27 17:26:30.563486, 562
2015-10-27 17:26:30.563567, 564
2015-10-27 17:26:30.579489, 566
2015-10-27 17:26:30.579579, 569
2015-10-27 17:26:30.579645, 574
2015-10-27 17:26:30.595664, 583
2015-10-27 17:26:30.595754, 590
2015-10-27 17:26:30.595821, 592
2015-10-27 17:26:30.611414, 597
2015-10-27 17:26:30.611570, 605
2015-10-27 17:26:30.611656, 615
2015-10-27 17:26:30.627389, 623
2015-10-27 17:26:30.627481, 632
2015-10-27 17:26:30.627546, 641
2015-10-27 17:26:30.643370, 648
2015-10-27 17:26:30.643461, 656
2015-10-27 17:26:30.643526, 662
2015-10-27 17:26:30.659435, 668
2015-10-27 17:26:30.659556, 669
2015-10-27 17:26:30.659622, 668
2015-10-27 17:26:30.675221, 665
2015-10-27 17:26:30.675417, 661
2015-10-27 17:26:30.675497, 654
2015-10-27 17:26:30.691197, 646
2015-10-27 17:26:30.691291, 634
2015-10-27 17:26:30.691356, 617
2015-10-27 17:26:30.707304, 602
2015-10-27 17:26:30.707415, 584
2015-10-27 17:26:30.707481, 565
2015-10-27 17:26:30.723124, 546
2015-10-27 17:26:30.723207, 528
2015-10-27 17:26:30.723256, 513
2015-10-27 17:26:30.739157, 501
2015-10-27 17:26:30.739326, 489
2015-10-27 17:26:30.739446, 480
2015-10-27 17:26:30.739573, 473
2015-10-27 17:26:30.755478, 467
2015-10-27 17:26:30.755639, 464
2015-10-27 17:26:30.755711, 461
2015-10-27 17:26:30.771321, 457
2015-10-27 17:26:30.771411, 455
2015-10-27 17:26:30.771477, 456
2015-10-27 17:26:30.787384, 456
2015-10-27 17:26:30.787474, 456
2015-10-27 17:26:30.787538, 453
2015-10-27 17:26:30.803167, 455
2015-10-27 17:26:30.803258, 458
2015-10-27 17:26:30.803324, 458
2015-10-27 17:26:30.819346, 460
2015-10-27 17:26:30.819438, 464
2015-10-27 17:26:30.819503, 464
2015-10-27 17:26:30.835410, 468
2015-10-27 17:26:30.835500, 470
2015-10-27 17:26:30.835565, 471
2015-10-27 17:26:30.851121, 471
2015-10-27 17:26:30.851200, 473
2015-10-27 17:26:30.851255, 478
2015-10-27 17:26:30.867229, 480
2015-10-27 17:26:30.867331, 481
2015-10-27 17:26:30.867403, 482
2015-10-27 17:26:30.883302, 483
2015-10-27 17:26:30.883395, 484
2015-10-27 17:26:30.883492, 486
2015-10-27 17:26:30.899140, 487
2015-10-27 17:26:30.899297, 485
2015-10-27 17:26:30.899398, 482
2015-10-27 17:26:30.915330, 484
2015-10-27 17:26:30.915424, 486
2015-10-27 17:26:30.915489, 486
2015-10-27 17:26:30.931110, 486
2015-10-27 17:26:30.931204, 486
2015-10-27 17:26:30.931270, 487
2015-10-27 17:26:30.947400, 487
2015-10-27 17:26:30.947509, 484
2015-10-27 17:26:30.947580, 483
2015-10-27 17:26:30.963340, 482
2015-10-27 17:26:30.963449, 481
2015-10-27 17:26:30.963516, 480
2015-10-27 17:26:30.979116, 482
2015-10-27 17:26:30.979222, 483
2015-10-27 17:26:30.979288, 484
2015-10-27 17:26:30.979350, 485
2015-10-27 17:26:30.995152, 485
2015-10-27 17:26:30.995277, 483
2015-10-27 17:26:30.995379, 484
2015-10-27 17:26:31.011145, 484
2015-10-27 17:26:31.011234, 482
2015-10-27 17:26:31.011299, 482
2015-10-27 17:26:31.027369, 484
2015-10-27 17:26:31.027458, 484
2015-10-27 17:26:31.027522, 484
2015-10-27 17:26:31.043269, 483
2015-10-27 17:26:31.043358, 486
2015-10-27 17:26:31.043422, 485
2015-10-27 17:26:31.059129, 486
2015-10-27 17:26:31.059195, 487
2015-10-27 17:26:31.059241, 487
2015-10-27 17:26:31.075200, 485
2015-10-27 17:26:31.075291, 487
2015-10-27 17:26:31.075356, 489
2015-10-27 17:26:31.091032, 489
2015-10-27 17:26:31.091100, 489
2015-10-27 17:26:31.091147, 489
2015-10-27 17:26:31.107186, 489
2015-10-27 17:26:31.107276, 487
2015-10-27 17:26:31.107342, 486
2015-10-27 17:26:31.123092, 485
2015-10-27 17:26:31.123185, 484
2015-10-27 17:26:31.123252, 482
2015-10-27 17:26:31.139213, 485
2015-10-27 17:26:31.139305, 487
2015-10-27 17:26:31.139371, 487
2015-10-27 17:26:31.155345, 486
2015-10-27 17:26:31.155438, 484
2015-10-27 17:26:31.155507, 485
2015-10-27 17:26:31.171153, 483
2015-10-27 17:26:31.171341, 481
2015-10-27 17:26:31.171411, 483
2015-10-27 17:26:31.187015, 485
2015-10-27 17:26:31.187192, 486
2015-10-27 17:26:31.187306, 485
2015-10-27 17:26:31.203145, 485
2015-10-27 17:26:31.203255, 486
2015-10-27 17:26:31.203322, 487
2015-10-27 17:26:31.219199, 487
2015-10-27 17:26:31.219308, 484
2015-10-27 17:26:31.219374, 483
2015-10-27 17:26:31.235171, 488
2015-10-27 17:26:31.235279, 490
2015-10-27 17:26:31.235345, 489
2015-10-27 17:26:31.235406, 491
2015-10-27 17:26:31.251222, 492
2015-10-27 17:26:31.251312, 493
2015-10-27 17:26:31.251377, 493
2015-10-27 17:26:31.267243, 496
2015-10-27 17:26:31.267383, 498
2015-10-27 17:26:31.267491, 490
2015-10-27 17:26:31.283391, 482
2015-10-27 17:26:31.283484, 480
2015-10-27 17:26:31.283569, 479
2015-10-27 17:26:31.299009, 480
2015-10-27 17:26:31.299197, 482
2015-10-27 17:26:31.299284, 481
2015-10-27 17:26:31.315017, 480
2015-10-27 17:26:31.315090, 480
2015-10-27 17:26:31.315143, 479
2015-10-27 17:26:31.330969, 478
2015-10-27 17:26:31.331056, 477
2015-10-27 17:26:31.331133, 475
2015-10-27 17:26:31.346947, 475
2015-10-27 17:26:31.347040, 477
2015-10-27 17:26:31.347080, 479
2015-10-27 17:26:31.363040, 477
2015-10-27 17:26:31.363172, 478
2015-10-27 17:26:31.363251, 486
2015-10-27 17:26:31.379001, 506
2015-10-27 17:26:31.379098, 566
2015-10-27 17:26:31.379171, 658
2015-10-27 17:26:31.394950, 686
2015-10-27 17:26:31.395042, 633
2015-10-27 17:26:31.395115, 501
2015-10-27 17:26:31.411080, 371
2015-10-27 17:26:31.411182, 269
2015-10-27 17:26:31.411256, 210
2015-10-27 17:26:31.426925, 291
2015-10-27 17:26:31.427058, 389
2015-10-27 17:26:31.427174, 442
2015-10-27 17:26:31.442902, 467
2015-10-27 17:26:31.442968, 483
2015-10-27 17:26:31.443025, 491
2015-10-27 17:26:31.458970, 494
2015-10-27 17:26:31.459098, 496
2015-10-27 17:26:31.459153, 497
2015-10-27 17:26:31.475061, 500
2015-10-27 17:26:31.475168, 502
2015-10-27 17:26:31.475238, 504
2015-10-27 17:26:31.475307, 508
2015-10-27 17:26:31.490966, 508
2015-10-27 17:26:31.491046, 507
2015-10-27 17:26:31.491105, 507
2015-10-27 17:26:31.506929, 509
2015-10-27 17:26:31.507019, 511
2015-10-27 17:26:31.507087, 512
2015-10-27 17:26:31.522922, 514
2015-10-27 17:26:31.523013, 515
2015-10-27 17:26:31.523084, 518
2015-10-27 17:26:31.539488, 521
2015-10-27 17:26:31.539577, 524
2015-10-27 17:26:31.539643, 526
2015-10-27 17:26:31.555308, 530
2015-10-27 17:26:31.555400, 534
2015-10-27 17:26:31.555474, 540
2015-10-27 17:26:31.570931, 545
2015-10-27 17:26:31.571063, 550
2015-10-27 17:26:31.571136, 559
2015-10-27 17:26:31.586971, 566
2015-10-27 17:26:31.587062, 572
2015-10-27 17:26:31.587131, 578
2015-10-27 17:26:31.602860, 588
2015-10-27 17:26:31.602915, 598
2015-10-27 17:26:31.602953, 605
2015-10-27 17:26:31.618886, 612
2015-10-27 17:26:31.618985, 619
2015-10-27 17:26:31.619060, 621
2015-10-27 17:26:31.634881, 622
2015-10-27 17:26:31.634979, 622
2015-10-27 17:26:31.635052, 618
2015-10-27 17:26:31.650854, 613
2015-10-27 17:26:31.650911, 605
2015-10-27 17:26:31.650948, 594
2015-10-27 17:26:31.666838, 580
2015-10-27 17:26:31.666889, 564
2015-10-27 17:26:31.666926, 545
2015-10-27 17:26:31.682821, 526
2015-10-27 17:26:31.682955, 507
2015-10-27 17:26:31.682996, 491
2015-10-27 17:26:31.698805, 475
2015-10-27 17:26:31.698873, 459
2015-10-27 17:26:31.698911, 446
2015-10-27 17:26:31.714835, 435
2015-10-27 17:26:31.714903, 427
2015-10-27 17:26:31.714941, 422
2015-10-27 17:26:31.714977, 419
2015-10-27 17:26:31.731026, 414
2015-10-27 17:26:31.731112, 410
2015-10-27 17:26:31.731179, 407
2015-10-27 17:26:31.746871, 405
2015-10-27 17:26:31.746936, 403
2015-10-27 17:26:31.746980, 401
2015-10-27 17:26:31.762988, 402
2015-10-27 17:26:31.763085, 404
2015-10-27 17:26:31.763155, 405
2015-10-27 17:26:31.778923, 406
2015-10-27 17:26:31.779147, 407
2015-10-27 17:26:31.779384, 409
2015-10-27 17:26:31.794920, 411
2015-10-27 17:26:31.795010, 416
2015-10-27 17:26:31.795084, 419
2015-10-27 17:26:31.811013, 422
2015-10-27 17:26:31.811104, 422
2015-10-27 17:26:31.811169, 425
2015-10-27 17:26:31.826832, 430
2015-10-27 17:26:31.826920, 432
2015-10-27 17:26:31.827046, 435
2015-10-27 17:26:31.843107, 438
2015-10-27 17:26:31.843421, 441
2015-10-27 17:26:31.843688, 441
2015-10-27 17:26:31.859664, 440
2015-10-27 17:26:31.859973, 439
2015-10-27 17:26:31.860234, 440
2015-10-27 17:26:31.874788, 442
2015-10-27 17:26:31.874858, 442
2015-10-27 17:26:31.874905, 442
2015-10-27 17:26:31.891119, 442
2015-10-27 17:26:31.891287, 442
2015-10-27 17:26:31.891444, 445
2015-10-27 17:26:31.906822, 446
2015-10-27 17:26:31.906899, 443
2015-10-27 17:26:31.907008, 444
2015-10-27 17:26:31.922807, 446
2015-10-27 17:26:31.922919, 448
2015-10-27 17:26:31.922992, 448
2015-10-27 17:26:31.938889, 448
2015-10-27 17:26:31.938985, 451
2015-10-27 17:26:31.939360, 454
2015-10-27 17:26:31.954859, 456
2015-10-27 17:26:31.954969, 457
2015-10-27 17:26:31.955035, 457
2015-10-27 17:26:31.955145, 459
2015-10-27 17:26:31.971164, 459
2015-10-27 17:26:31.971356, 460
2015-10-27 17:26:31.971429, 462
2015-10-27 17:26:31.986955, 464
2015-10-27 17:26:31.988583, 465
2015-10-27 17:26:31.988664, 463
2015-10-27 17:26:32.002908, 464
2015-10-27 17:26:32.003002, 468
2015-10-27 17:26:32.003080, 470
2015-10-27 17:26:32.018883, 470
2015-10-27 17:26:32.018943, 470
2015-10-27 17:26:32.018983, 471
2015-10-27 17:26:32.034863, 473
2015-10-27 17:26:32.034918, 474
2015-10-27 17:26:32.034955, 474
2015-10-27 17:26:32.050995, 475
2015-10-27 17:26:32.051070, 475
2015-10-27 17:26:32.051124, 476
2015-10-27 17:26:32.067035, 478
2015-10-27 17:26:32.067127, 480
2015-10-27 17:26:32.067191, 481
2015-10-27 17:26:32.082913, 481
2015-10-27 17:26:32.083004, 481
2015-10-27 17:26:32.083068, 483
2015-10-27 17:26:32.098863, 483
2015-10-27 17:26:32.098931, 484
2015-10-27 17:26:32.098979, 486
2015-10-27 17:26:32.115045, 486
2015-10-27 17:26:32.115164, 487
2015-10-27 17:26:32.115212, 489
2015-10-27 17:26:32.130978, 489
2015-10-27 17:26:32.131187, 489
2015-10-27 17:26:32.131275, 491
2015-10-27 17:26:32.146884, 493
2015-10-27 17:26:32.147039, 494
2015-10-27 17:26:32.147335, 494
2015-10-27 17:26:32.162827, 495
2015-10-27 17:26:32.163010, 494
2015-10-27 17:26:32.163148, 495
2015-10-27 17:26:32.178921, 495
2015-10-27 17:26:32.179096, 495
2015-10-27 17:26:32.179273, 496
2015-10-27 17:26:32.195016, 498
2015-10-27 17:26:32.195124, 498
2015-10-27 17:26:32.195326, 498
2015-10-27 17:26:32.195394, 498
2015-10-27 17:26:32.211149, 501
2015-10-27 17:26:32.211238, 503
2015-10-27 17:26:32.211427, 505
2015-10-27 17:26:32.226990, 507
2015-10-27 17:26:32.227079, 511
2015-10-27 17:26:32.227154, 510
2015-10-27 17:26:32.242791, 507
2015-10-27 17:26:32.242936, 511
2015-10-27 17:26:32.242985, 515
2015-10-27 17:26:32.258895, 518
2015-10-27 17:26:32.258975, 519
2015-10-27 17:26:32.259035, 521
2015-10-27 17:26:32.275186, 525
2015-10-27 17:26:32.275267, 527
2015-10-27 17:26:32.275343, 531
2015-10-27 17:26:32.290804, 532
2015-10-27 17:26:32.290898, 524
2015-10-27 17:26:32.290971, 513
2015-10-27 17:26:32.306774, 507
2015-10-27 17:26:32.306838, 508
2015-10-27 17:26:32.306882, 512
2015-10-27 17:26:32.322794, 511
2015-10-27 17:26:32.322893, 510
2015-10-27 17:26:32.322936, 511
2015-10-27 17:26:32.338797, 514
2015-10-27 17:26:32.338904, 516
2015-10-27 17:26:32.338986, 515
2015-10-27 17:26:32.354818, 517
2015-10-27 17:26:32.354916, 519
2015-10-27 17:26:32.354969, 519
2015-10-27 17:26:32.370753, 518
2015-10-27 17:26:32.370812, 519
2015-10-27 17:26:32.370850, 521
2015-10-27 17:26:32.386789, 523
2015-10-27 17:26:32.386885, 529
2015-10-27 17:26:32.386952, 544
2015-10-27 17:26:32.402765, 590
2015-10-27 17:26:32.402823, 684
2015-10-27 17:26:32.402860, 750
2015-10-27 17:26:32.418718, 736
2015-10-27 17:26:32.418846, 632
2015-10-27 17:26:32.418923, 478
2015-10-27 17:26:32.434703, 358
2015-10-27 17:26:32.434832, 253
2015-10-27 17:26:32.434914, 301
2015-10-27 17:26:32.450710, 413
2015-10-27 17:26:32.450795, 484
2015-10-27 17:26:32.450847, 518
2015-10-27 17:26:32.450898, 537
2015-10-27 17:26:32.466809, 546
2015-10-27 17:26:32.466885, 549
2015-10-27 17:26:32.466938, 553
2015-10-27 17:26:32.482721, 557
2015-10-27 17:26:32.482776, 560
2015-10-27 17:26:32.482813, 562
2015-10-27 17:26:32.498782, 563
2015-10-27 17:26:32.498856, 566
2015-10-27 17:26:32.498908, 568
2015-10-27 17:26:32.514700, 569
2015-10-27 17:26:32.514764, 569
2015-10-27 17:26:32.514820, 572
2015-10-27 17:26:32.530688, 574
2015-10-27 17:26:32.530743, 578
2015-10-27 17:26:32.530780, 581
2015-10-27 17:26:32.546717, 584
2015-10-27 17:26:32.546783, 586
2015-10-27 17:26:32.546828, 590
2015-10-27 17:26:32.562656, 594
2015-10-27 17:26:32.562714, 599
2015-10-27 17:26:32.562757, 603
2015-10-27 17:26:32.578892, 607
2015-10-27 17:26:32.578983, 612
2015-10-27 17:26:32.579192, 619
2015-10-27 17:26:32.595103, 624
2015-10-27 17:26:32.595194, 632
2015-10-27 17:26:32.595260, 639
2015-10-27 17:26:32.610948, 648
2015-10-27 17:26:32.611046, 658
2015-10-27 17:26:32.611112, 668
2015-10-27 17:26:32.626880, 678
2015-10-27 17:26:32.626986, 687
2015-10-27 17:26:32.627051, 695
2015-10-27 17:26:32.642999, 699
2015-10-27 17:26:32.643094, 705
2015-10-27 17:26:32.643160, 708
2015-10-27 17:26:32.658912, 706
2015-10-27 17:26:32.659074, 702
2015-10-27 17:26:32.659141, 696
2015-10-27 17:26:32.674821, 689
2015-10-27 17:26:32.674930, 681
2015-10-27 17:26:32.674996, 669
2015-10-27 17:26:32.690678, 654
2015-10-27 17:26:32.690824, 635
2015-10-27 17:26:32.690897, 614
2015-10-27 17:26:32.691178, 595
2015-10-27 17:26:32.706952, 572
2015-10-27 17:26:32.707041, 554
2015-10-27 17:26:32.707106, 539
2015-10-27 17:26:32.722856, 525
2015-10-27 17:26:32.722947, 511
2015-10-27 17:26:32.723013, 499
2015-10-27 17:26:32.738797, 490
2015-10-27 17:26:32.738891, 485
2015-10-27 17:26:32.738957, 482
2015-10-27 17:26:32.756068, 479
2015-10-27 17:26:32.756328, 476
2015-10-27 17:26:32.756519, 474
2015-10-27 17:26:32.770599, 473
2015-10-27 17:26:32.770663, 471
2015-10-27 17:26:32.770708, 471
2015-10-27 17:26:32.786935, 471
2015-10-27 17:26:32.787024, 471
2015-10-27 17:26:32.787090, 472
2015-10-27 17:26:32.802809, 474
2015-10-27 17:26:32.802899, 477
2015-10-27 17:26:32.802963, 480
2015-10-27 17:26:32.818826, 483
2015-10-27 17:26:32.818917, 485
2015-10-27 17:26:32.818981, 487
2015-10-27 17:26:32.834762, 490
2015-10-27 17:26:32.834856, 494
2015-10-27 17:26:32.834922, 496
2015-10-27 17:26:32.850667, 496
2015-10-27 17:26:32.850762, 497
2015-10-27 17:26:32.850829, 497
2015-10-27 17:26:32.866690, 500
2015-10-27 17:26:32.866867, 501
2015-10-27 17:26:32.866940, 502
2015-10-27 17:26:32.882620, 502
2015-10-27 17:26:32.882695, 501
2015-10-27 17:26:32.882740, 503
2015-10-27 17:26:32.898741, 502
2015-10-27 17:26:32.898821, 501
2015-10-27 17:26:32.898869, 502
2015-10-27 17:26:32.914729, 503
2015-10-27 17:26:32.914880, 502
2015-10-27 17:26:32.915051, 501
2015-10-27 17:26:32.930580, 498
2015-10-27 17:26:32.930687, 497
2015-10-27 17:26:32.930727, 497
2015-10-27 17:26:32.930762, 498
2015-10-27 17:26:32.946746, 498
2015-10-27 17:26:32.946895, 499
2015-10-27 17:26:32.946966, 498
2015-10-27 17:26:32.962822, 499
2015-10-27 17:26:32.962954, 499
2015-10-27 17:26:32.963039, 498
2015-10-27 17:26:32.978929, 499
2015-10-27 17:26:32.979018, 500
2015-10-27 17:26:32.979101, 499
2015-10-27 17:26:32.994935, 498
2015-10-27 17:26:32.995046, 496
2015-10-27 17:26:32.995112, 495
2015-10-27 17:26:33.010837, 495
2015-10-27 17:26:33.010926, 496
2015-10-27 17:26:33.010990, 495
2015-10-27 17:26:33.027461, 495
2015-10-27 17:26:33.027617, 495
2015-10-27 17:26:33.027740, 494
2015-10-27 17:26:33.042844, 496
2015-10-27 17:26:33.042948, 496
2015-10-27 17:26:33.043013, 494
2015-10-27 17:26:33.058703, 494
2015-10-27 17:26:33.058847, 493
2015-10-27 17:26:33.058912, 493
2015-10-27 17:26:33.074674, 492
2015-10-27 17:26:33.074742, 493
2015-10-27 17:26:33.074790, 494
2015-10-27 17:26:33.090574, 493
2015-10-27 17:26:33.090648, 493
2015-10-27 17:26:33.090696, 492
2015-10-27 17:26:33.106815, 493
2015-10-27 17:26:33.106909, 494
2015-10-27 17:26:33.106974, 495
2015-10-27 17:26:33.122891, 496
2015-10-27 17:26:33.123015, 497
2015-10-27 17:26:33.123080, 498
2015-10-27 17:26:33.138789, 499
2015-10-27 17:26:33.138995, 499
2015-10-27 17:26:33.139158, 499
2015-10-27 17:26:33.154830, 499
2015-10-27 17:26:33.154993, 497
2015-10-27 17:26:33.155060, 498
2015-10-27 17:26:33.170700, 497
2015-10-27 17:26:33.170814, 499
2015-10-27 17:26:33.170879, 500
2015-10-27 17:26:33.170942, 501
2015-10-27 17:26:33.186805, 501
2015-10-27 17:26:33.186895, 501
2015-10-27 17:26:33.186960, 502
2015-10-27 17:26:33.202721, 502
2015-10-27 17:26:33.202812, 503
2015-10-27 17:26:33.202876, 504
2015-10-27 17:26:33.218713, 505
2015-10-27 17:26:33.218801, 504
2015-10-27 17:26:33.218865, 501
2015-10-27 17:26:33.234845, 501
2015-10-27 17:26:33.234959, 504
2015-10-27 17:26:33.235024, 507
2015-10-27 17:26:33.250650, 506
2015-10-27 17:26:33.250864, 507
2015-10-27 17:26:33.251040, 507
2015-10-27 17:26:33.266558, 506
2015-10-27 17:26:33.266647, 509
2015-10-27 17:26:33.266713, 512
2015-10-27 17:26:33.282531, 513
2015-10-27 17:26:33.282593, 513
2015-10-27 17:26:33.282630, 512
2015-10-27 17:26:33.298477, 515
2015-10-27 17:26:33.298544, 517
2015-10-27 17:26:33.298590, 519
2015-10-27 17:26:33.314654, 520
2015-10-27 17:26:33.314728, 521
2015-10-27 17:26:33.314781, 525
2015-10-27 17:26:33.330548, 526
2015-10-27 17:26:33.330631, 527
2015-10-27 17:26:33.330686, 528
2015-10-27 17:26:33.346477, 523
2015-10-27 17:26:33.346579, 514
2015-10-27 17:26:33.346640, 509
2015-10-27 17:26:33.362462, 507
2015-10-27 17:26:33.362529, 508
2015-10-27 17:26:33.362588, 509
2015-10-27 17:26:33.378479, 508
2015-10-27 17:26:33.378563, 508
2015-10-27 17:26:33.378613, 510
2015-10-27 17:26:33.394519, 510
2015-10-27 17:26:33.394628, 509
2015-10-27 17:26:33.394695, 509
2015-10-27 17:26:33.410437, 509
2015-10-27 17:26:33.410519, 508
2015-10-27 17:26:33.410568, 508
2015-10-27 17:26:33.410614, 509
2015-10-27 17:26:33.426513, 508
2015-10-27 17:26:33.426630, 508
2015-10-27 17:26:33.426753, 514
2015-10-27 17:26:33.442551, 528
2015-10-27 17:26:33.442609, 567
2015-10-27 17:26:33.442648, 660
2015-10-27 17:26:33.458726, 747
2015-10-27 17:26:33.458875, 752
2015-10-27 17:26:33.458981, 661
2015-10-27 17:26:33.474567, 494
2015-10-27 17:26:33.474642, 363
2015-10-27 17:26:33.474682, 238
2015-10-27 17:26:33.490685, 260
2015-10-27 17:26:33.490886, 379
2015-10-27 17:26:33.491043, 461
2015-10-27 17:26:33.506495, 497
2015-10-27 17:26:33.506623, 516
2015-10-27 17:26:33.506718, 528
2015-10-27 17:26:33.522545, 531
2015-10-27 17:26:33.522715, 533
2015-10-27 17:26:33.522855, 537
2015-10-27 17:26:33.538832, 542
2015-10-27 17:26:33.538958, 546
2015-10-27 17:26:33.539047, 549
2015-10-27 17:26:33.554782, 550
2015-10-27 17:26:33.554931, 551
2015-10-27 17:26:33.555164, 554
2015-10-27 17:26:33.570576, 555
2015-10-27 17:26:33.570668, 557
2015-10-27 17:26:33.570733, 559
2015-10-27 17:26:33.586673, 560
2015-10-27 17:26:33.586801, 563
2015-10-27 17:26:33.586866, 565
2015-10-27 17:26:33.602425, 568
2015-10-27 17:26:33.602521, 572
2015-10-27 17:26:33.602600, 574
2015-10-27 17:26:33.618379, 578
2015-10-27 17:26:33.618450, 582
2015-10-27 17:26:33.618498, 587
2015-10-27 17:26:33.634559, 594
2015-10-27 17:26:33.634670, 601
2015-10-27 17:26:33.634736, 606
2015-10-27 17:26:33.650562, 612
2015-10-27 17:26:33.650674, 621
2015-10-27 17:26:33.650741, 631
2015-10-27 17:26:33.666419, 638
2015-10-27 17:26:33.666529, 647
2015-10-27 17:26:33.666596, 656
2015-10-27 17:26:33.666658, 666
2015-10-27 17:26:33.682569, 674
2015-10-27 17:26:33.682684, 681
2015-10-27 17:26:33.682753, 687
2015-10-27 17:26:33.698635, 687
2015-10-27 17:26:33.698724, 684
2015-10-27 17:26:33.698789, 681
2015-10-27 17:26:33.714444, 679
2015-10-27 17:26:33.714533, 673
2015-10-27 17:26:33.714597, 662
2015-10-27 17:26:33.730562, 648
2015-10-27 17:26:33.730652, 633
2015-10-27 17:26:33.730717, 618
2015-10-27 17:26:33.746686, 599
2015-10-27 17:26:33.746777, 578
2015-10-27 17:26:33.746842, 558
2015-10-27 17:26:33.762403, 539
2015-10-27 17:26:33.762492, 520
2015-10-27 17:26:33.762558, 505
2015-10-27 17:26:33.778577, 492
2015-10-27 17:26:33.778669, 479
2015-10-27 17:26:33.778734, 469
2015-10-27 17:26:33.794615, 464
2015-10-27 17:26:33.794706, 457
2015-10-27 17:26:33.794770, 450
2015-10-27 17:26:33.810372, 449
2015-10-27 17:26:33.810462, 449
2015-10-27 17:26:33.810527, 445
2015-10-27 17:26:33.826720, 445
2015-10-27 17:26:33.826839, 445
2015-10-27 17:26:33.826904, 444
2015-10-27 17:26:33.842515, 445
2015-10-27 17:26:33.842607, 445
2015-10-27 17:26:33.842673, 447
2015-10-27 17:26:33.858478, 450
2015-10-27 17:26:33.858573, 452
2015-10-27 17:26:33.858638, 456
2015-10-27 17:26:33.874372, 458
2015-10-27 17:26:33.874571, 459
2015-10-27 17:26:33.874666, 463
2015-10-27 17:26:33.890523, 464
2015-10-27 17:26:33.890633, 464
2015-10-27 17:26:33.890699, 464
2015-10-27 17:26:33.906519, 465
2015-10-27 17:26:33.906628, 466
2015-10-27 17:26:33.906693, 467
2015-10-27 17:26:33.906756, 471
2015-10-27 17:26:33.922530, 474
2015-10-27 17:26:33.922619, 473
2015-10-27 17:26:33.922683, 473
2015-10-27 17:26:33.938511, 472
2015-10-27 17:26:33.938602, 471
2015-10-27 17:26:33.938668, 472
2015-10-27 17:26:33.954425, 472
2015-10-27 17:26:33.954534, 470
2015-10-27 17:26:33.954602, 470
2015-10-27 17:26:33.970437, 471
2015-10-27 17:26:33.970546, 473
2015-10-27 17:26:33.970614, 473
2015-10-27 17:26:33.986437, 471
2015-10-27 17:26:33.986544, 471
2015-10-27 17:26:33.986633, 472
2015-10-27 17:26:34.002432, 471
2015-10-27 17:26:34.002523, 470
2015-10-27 17:26:34.002589, 470
2015-10-27 17:26:34.018455, 470
2015-10-27 17:26:34.018565, 471
2015-10-27 17:26:34.018651, 473
2015-10-27 17:26:34.034434, 475
2015-10-27 17:26:34.034591, 474
2015-10-27 17:26:34.034663, 473
2015-10-27 17:26:34.050652, 476
2015-10-27 17:26:34.050743, 476
2015-10-27 17:26:34.050898, 475
2015-10-27 17:26:34.066442, 477
2015-10-27 17:26:34.066536, 476
2015-10-27 17:26:34.066612, 476
2015-10-27 17:26:34.082609, 477
2015-10-27 17:26:34.082790, 478
2015-10-27 17:26:34.082866, 477
2015-10-27 17:26:34.098343, 477
2015-10-27 17:26:34.098451, 477
2015-10-27 17:26:34.098531, 477
2015-10-27 17:26:34.114460, 478
2015-10-27 17:26:34.114580, 478
2015-10-27 17:26:34.114647, 478
2015-10-27 17:26:34.130281, 478
2015-10-27 17:26:34.130358, 479
2015-10-27 17:26:34.130404, 479
2015-10-27 17:26:34.146563, 480
2015-10-27 17:26:34.146763, 482
2015-10-27 17:26:34.146887, 482
2015-10-27 17:26:34.146963, 482
2015-10-27 17:26:34.162642, 480
2015-10-27 17:26:34.162732, 480
2015-10-27 17:26:34.162797, 481
2015-10-27 17:26:34.178614, 482
2015-10-27 17:26:34.178704, 482
2015-10-27 17:26:34.178769, 483
2015-10-27 17:26:34.194576, 485
2015-10-27 17:26:34.194683, 486
2015-10-27 17:26:34.194765, 487
2015-10-27 17:26:34.210712, 488
2015-10-27 17:26:34.210804, 485
2015-10-27 17:26:34.210869, 483
2015-10-27 17:26:34.226612, 486
2015-10-27 17:26:34.226725, 488
2015-10-27 17:26:34.226790, 489
2015-10-27 17:26:34.242489, 489
2015-10-27 17:26:34.242579, 491
2015-10-27 17:26:34.242645, 489
2015-10-27 17:26:34.258598, 489
2015-10-27 17:26:34.258719, 490
2015-10-27 17:26:34.258784, 491
2015-10-27 17:26:34.274328, 492
2015-10-27 17:26:34.274501, 491
2015-10-27 17:26:34.274585, 491
2015-10-27 17:26:34.290325, 494
2015-10-27 17:26:34.290427, 495
2015-10-27 17:26:34.290492, 495
2015-10-27 17:26:34.306458, 496
2015-10-27 17:26:34.306551, 493
2015-10-27 17:26:34.306616, 493
2015-10-27 17:26:34.322289, 498
2015-10-27 17:26:34.322357, 502
2015-10-27 17:26:34.322402, 504
2015-10-27 17:26:34.338276, 505
2015-10-27 17:26:34.338369, 507
2015-10-27 17:26:34.338436, 510
2015-10-27 17:26:34.354207, 513
2015-10-27 17:26:34.354283, 516
2015-10-27 17:26:34.354330, 512
2015-10-27 17:26:34.370250, 502
2015-10-27 17:26:34.370361, 493
2015-10-27 17:26:34.370428, 492
2015-10-27 17:26:34.386276, 492
2015-10-27 17:26:34.386453, 492
2015-10-27 17:26:34.386573, 492
2015-10-27 17:26:34.386628, 494
2015-10-27 17:26:34.402257, 493
2015-10-27 17:26:34.402326, 490
2015-10-27 17:26:34.402364, 490
2015-10-27 17:26:34.418361, 489
2015-10-27 17:26:34.418452, 491
2015-10-27 17:26:34.418519, 494
2015-10-27 17:26:34.434646, 495
2015-10-27 17:26:34.434737, 496
2015-10-27 17:26:34.434897, 497
2015-10-27 17:26:34.450409, 498
2015-10-27 17:26:34.450706, 502
2015-10-27 17:26:34.450854, 511
2015-10-27 17:26:34.466230, 543
2015-10-27 17:26:34.466322, 629
2015-10-27 17:26:34.466436, 732
2015-10-27 17:26:34.482432, 757
2015-10-27 17:26:34.482521, 685
2015-10-27 17:26:34.482585, 513
2015-10-27 17:26:34.498509, 368
2015-10-27 17:26:34.498631, 226
2015-10-27 17:26:34.498697, 208
2015-10-27 17:26:34.514553, 326
2015-10-27 17:26:34.514643, 425
2015-10-27 17:26:34.514708, 473
2015-10-27 17:26:34.530287, 498
2015-10-27 17:26:34.530433, 514
2015-10-27 17:26:34.530506, 519
2015-10-27 17:26:34.546292, 522
2015-10-27 17:26:34.546383, 524
2015-10-27 17:26:34.546468, 529
2015-10-27 17:26:34.562179, 532
2015-10-27 17:26:34.562235, 531
2015-10-27 17:26:34.562273, 533
2015-10-27 17:26:34.578219, 537
2015-10-27 17:26:34.578285, 541
2015-10-27 17:26:34.578330, 544
2015-10-27 17:26:34.594166, 545
2015-10-27 17:26:34.594220, 545
2015-10-27 17:26:34.594257, 546
2015-10-27 17:26:34.610211, 549
2015-10-27 17:26:34.610342, 552
2015-10-27 17:26:34.610465, 555
2015-10-27 17:26:34.626207, 558
2015-10-27 17:26:34.626387, 564
2015-10-27 17:26:34.626493, 569
2015-10-27 17:26:34.642490, 570
2015-10-27 17:26:34.642650, 574
2015-10-27 17:26:34.642718, 581
2015-10-27 17:26:34.642781, 589
2015-10-27 17:26:34.658330, 594
2015-10-27 17:26:34.658418, 601
2015-10-27 17:26:34.658483, 607
2015-10-27 17:26:34.674175, 617
2015-10-27 17:26:34.674239, 627
2015-10-27 17:26:34.674283, 638
2015-10-27 17:26:34.690214, 649
2015-10-27 17:26:34.690305, 657
2015-10-27 17:26:34.690376, 665
2015-10-27 17:26:34.706241, 671
2015-10-27 17:26:34.706329, 677
2015-10-27 17:26:34.706452, 682
2015-10-27 17:26:34.722351, 681
2015-10-27 17:26:34.722441, 679
2015-10-27 17:26:34.722505, 676
2015-10-27 17:26:34.738332, 670
2015-10-27 17:26:34.738432, 663
2015-10-27 17:26:34.738507, 651
2015-10-27 17:26:34.754317, 636
2015-10-27 17:26:34.754407, 617
2015-10-27 17:26:34.754473, 598
2015-10-27 17:26:34.770311, 577
2015-10-27 17:26:34.770402, 554
2015-10-27 17:26:34.770469, 535
2015-10-27 17:26:34.786176, 516
2015-10-27 17:26:34.786296, 500
2015-10-27 17:26:34.786517, 485
2015-10-27 17:26:34.802201, 473
2015-10-27 17:26:34.802368, 464
2015-10-27 17:26:34.802593, 458
2015-10-27 17:26:34.818146, 453
2015-10-27 17:26:34.818307, 447
2015-10-27 17:26:34.818377, 440
2015-10-27 17:26:34.834325, 436
2015-10-27 17:26:34.834438, 436
2015-10-27 17:26:34.834505, 435
2015-10-27 17:26:34.850260, 437
2015-10-27 17:26:34.850368, 438
2015-10-27 17:26:34.850434, 437
2015-10-27 17:26:34.866093, 439
2015-10-27 17:26:34.866202, 444
2015-10-27 17:26:34.866269, 447
2015-10-27 17:26:34.882274, 450
2015-10-27 17:26:34.882385, 453
2015-10-27 17:26:34.882450, 454
2015-10-27 17:26:34.882512, 454
2015-10-27 17:26:34.898438, 456
2015-10-27 17:26:34.898547, 458
2015-10-27 17:26:34.898629, 459
2015-10-27 17:26:34.914237, 461
2015-10-27 17:26:34.914371, 462
2015-10-27 17:26:34.914484, 463
2015-10-27 17:26:34.930443, 466
2015-10-27 17:26:34.930532, 468
2015-10-27 17:26:34.930597, 469
2015-10-27 17:26:34.946435, 468
2015-10-27 17:26:34.946526, 466
2015-10-27 17:26:34.946609, 467
2015-10-27 17:26:34.962270, 468
2015-10-27 17:26:34.962357, 468
2015-10-27 17:26:34.962422, 467
2015-10-27 17:26:34.978123, 465
2015-10-27 17:26:34.978233, 465
2015-10-27 17:26:34.978307, 468
2015-10-27 17:26:34.994396, 467
2015-10-27 17:26:34.994497, 466
2015-10-27 17:26:34.994563, 464
2015-10-27 17:26:35.010342, 463
2015-10-27 17:26:35.010434, 463
2015-10-27 17:26:35.010498, 463
2015-10-27 17:26:35.026237, 465
2015-10-27 17:26:35.026327, 467
2015-10-27 17:26:35.026393, 464
2015-10-27 17:26:35.042231, 464
2015-10-27 17:26:35.042326, 465
2015-10-27 17:26:35.042391, 465
2015-10-27 17:26:35.058108, 464
2015-10-27 17:26:35.058201, 464
2015-10-27 17:26:35.058266, 464
2015-10-27 17:26:35.074138, 464
2015-10-27 17:26:35.074232, 467
2015-10-27 17:26:35.074299, 468
2015-10-27 17:26:35.090171, 466
2015-10-27 17:26:35.090280, 466
2015-10-27 17:26:35.090345, 468
2015-10-27 17:26:35.106078, 471
2015-10-27 17:26:35.106255, 472
2015-10-27 17:26:35.106389, 471
2015-10-27 17:26:35.122059, 469
2015-10-27 17:26:35.122234, 468
2015-10-27 17:26:35.122306, 470
2015-10-27 17:26:35.122370, 472
2015-10-27 17:26:35.138254, 474
2015-10-27 17:26:35.138342, 475
2015-10-27 17:26:35.138406, 475
2015-10-27 17:26:35.154090, 475
2015-10-27 17:26:35.154179, 474
2015-10-27 17:26:35.154243, 475
2015-10-27 17:26:35.170031, 477
2015-10-27 17:26:35.170120, 477
2015-10-27 17:26:35.170186, 476
2015-10-27 17:26:35.186301, 475
2015-10-27 17:26:35.186392, 475
2015-10-27 17:26:35.186457, 475
2015-10-27 17:26:35.202219, 476
2015-10-27 17:26:35.202309, 477
2015-10-27 17:26:35.202374, 478
2015-10-27 17:26:35.218145, 478
2015-10-27 17:26:35.218239, 479
2015-10-27 17:26:35.218362, 478
2015-10-27 17:26:35.234216, 479
2015-10-27 17:26:35.234412, 481
2015-10-27 17:26:35.234521, 483
2015-10-27 17:26:35.250031, 483
2015-10-27 17:26:35.250122, 482
2015-10-27 17:26:35.250187, 484
2015-10-27 17:26:35.266272, 485
2015-10-27 17:26:35.266392, 486
2015-10-27 17:26:35.266457, 487
2015-10-27 17:26:35.281957, 489
2015-10-27 17:26:35.282032, 492
2015-10-27 17:26:35.282082, 493
2015-10-27 17:26:35.298014, 493
2015-10-27 17:26:35.298079, 492
2015-10-27 17:26:35.298124, 491
2015-10-27 17:26:35.314339, 495
2015-10-27 17:26:35.314431, 497
2015-10-27 17:26:35.314500, 501
2015-10-27 17:26:35.330033, 503
2015-10-27 17:26:35.330145, 502
2015-10-27 17:26:35.330200, 506
2015-10-27 17:26:35.346276, 511
2015-10-27 17:26:35.346392, 514
2015-10-27 17:26:35.346459, 511
2015-10-27 17:26:35.362179, 502
2015-10-27 17:26:35.362292, 494
2015-10-27 17:26:35.362378, 492
2015-10-27 17:26:35.362443, 492
2015-10-27 17:26:35.378021, 493
2015-10-27 17:26:35.378123, 492
2015-10-27 17:26:35.378189, 494
2015-10-27 17:26:35.394065, 495
2015-10-27 17:26:35.394214, 495
2015-10-27 17:26:35.394400, 495
2015-10-27 17:26:35.410134, 494
2015-10-27 17:26:35.410221, 495
2015-10-27 17:26:35.410286, 497
2015-10-27 17:26:35.426136, 498
2015-10-27 17:26:35.426226, 497
2015-10-27 17:26:35.426290, 493
2015-10-27 17:26:35.442059, 493
2015-10-27 17:26:35.442150, 503
2015-10-27 17:26:35.442215, 520
2015-10-27 17:26:35.458010, 569
2015-10-27 17:26:35.458100, 676
2015-10-27 17:26:35.458166, 764
2015-10-27 17:26:35.474007, 762
2015-10-27 17:26:35.474098, 648
2015-10-27 17:26:35.474165, 464
2015-10-27 17:26:35.490222, 317
2015-10-27 17:26:35.490314, 186
2015-10-27 17:26:35.490378, 234
2015-10-27 17:26:35.505973, 368
2015-10-27 17:26:35.506064, 449
2015-10-27 17:26:35.506163, 484
2015-10-27 17:26:35.522333, 508
2015-10-27 17:26:35.522429, 519
2015-10-27 17:26:35.522494, 521
2015-10-27 17:26:35.538215, 523
2015-10-27 17:26:35.538310, 527
2015-10-27 17:26:35.538375, 534
2015-10-27 17:26:35.554082, 537
2015-10-27 17:26:35.554174, 538
2015-10-27 17:26:35.554240, 538
2015-10-27 17:26:35.570084, 540
2015-10-27 17:26:35.570193, 543
2015-10-27 17:26:35.570259, 546
2015-10-27 17:26:35.586113, 548
2015-10-27 17:26:35.586295, 552
2015-10-27 17:26:35.586363, 553
2015-10-27 17:26:35.602133, 557
2015-10-27 17:26:35.602309, 559
2015-10-27 17:26:35.602375, 562
2015-10-27 17:26:35.602437, 566
2015-10-27 17:26:35.618102, 571
2015-10-27 17:26:35.618192, 574
2015-10-27 17:26:35.618256, 578
2015-10-27 17:26:35.634114, 583
2015-10-27 17:26:35.634202, 590
2015-10-27 17:26:35.634268, 598
2015-10-27 17:26:35.650174, 604
2015-10-27 17:26:35.650264, 608
2015-10-27 17:26:35.650329, 615
2015-10-27 17:26:35.665924, 624
2015-10-27 17:26:35.666014, 634
2015-10-27 17:26:35.666079, 641
2015-10-27 17:26:35.682074, 650
2015-10-27 17:26:35.682163, 659
2015-10-27 17:26:35.682227, 669
2015-10-27 17:26:35.698214, 677
2015-10-27 17:26:35.698302, 683
2015-10-27 17:26:35.698387, 684
2015-10-27 17:26:35.714255, 682
2015-10-27 17:26:35.714390, 680
2015-10-27 17:26:35.714482, 675
2015-10-27 17:26:35.730198, 667
2015-10-27 17:26:35.730296, 656
2015-10-27 17:26:35.730362, 646
2015-10-27 17:26:35.746018, 629
2015-10-27 17:26:35.746109, 608
2015-10-27 17:26:35.746174, 587
2015-10-27 17:26:35.762152, 565
2015-10-27 17:26:35.762275, 543
2015-10-27 17:26:35.762343, 522
2015-10-27 17:26:35.777978, 500
2015-10-27 17:26:35.778071, 482
2015-10-27 17:26:35.778135, 468
2015-10-27 17:26:35.794084, 457
2015-10-27 17:26:35.794210, 449
2015-10-27 17:26:35.794277, 440
2015-10-27 17:26:35.810111, 433
2015-10-27 17:26:35.810206, 431
2015-10-27 17:26:35.810272, 427
2015-10-27 17:26:35.825862, 424
2015-10-27 17:26:35.826027, 421
2015-10-27 17:26:35.826100, 424
2015-10-27 17:26:35.841959, 427
2015-10-27 17:26:35.842070, 426
2015-10-27 17:26:35.842183, 426
2015-10-27 17:26:35.857823, 428
2015-10-27 17:26:35.857935, 431
2015-10-27 17:26:35.858003, 432
2015-10-27 17:26:35.858067, 433
2015-10-27 17:26:35.873978, 435
2015-10-27 17:26:35.874069, 436
2015-10-27 17:26:35.874135, 437
2015-10-27 17:26:35.889956, 438
2015-10-27 17:26:35.890045, 439
2015-10-27 17:26:35.890110, 442
2015-10-27 17:26:35.906054, 441
2015-10-27 17:26:35.906144, 441
2015-10-27 17:26:35.906208, 443
2015-10-27 17:26:35.922047, 444
2015-10-27 17:26:35.922138, 443
2015-10-27 17:26:35.922203, 443
2015-10-27 17:26:35.937976, 443
2015-10-27 17:26:35.938066, 444
2015-10-27 17:26:35.938131, 445
2015-10-27 17:26:35.954078, 443
2015-10-27 17:26:35.954169, 442
2015-10-27 17:26:35.954236, 443
2015-10-27 17:26:35.969882, 442
2015-10-27 17:26:35.970029, 441
2015-10-27 17:26:35.970098, 440
2015-10-27 17:26:35.986161, 439
2015-10-27 17:26:35.986278, 439
2015-10-27 17:26:35.986345, 438
2015-10-27 17:26:36.002142, 437
2015-10-27 17:26:36.002267, 436
2015-10-27 17:26:36.002332, 436
2015-10-27 17:26:36.018044, 437
2015-10-27 17:26:36.018136, 438
2015-10-27 17:26:36.018202, 435
2015-10-27 17:26:36.034016, 435
2015-10-27 17:26:36.034109, 437
2015-10-27 17:26:36.034174, 439
2015-10-27 17:26:36.050021, 440
2015-10-27 17:26:36.050114, 440
2015-10-27 17:26:36.050179, 438
2015-10-27 17:26:36.065819, 438
2015-10-27 17:26:36.065929, 439
2015-10-27 17:26:36.065996, 440
2015-10-27 17:26:36.082037, 439
2015-10-27 17:26:36.082147, 439
2015-10-27 17:26:36.082214, 441
2015-10-27 17:26:36.097828, 439
2015-10-27 17:26:36.097937, 438
2015-10-27 17:26:36.098004, 440
2015-10-27 17:26:36.098065, 440
2015-10-27 17:26:36.114175, 441
2015-10-27 17:26:36.114290, 440
2015-10-27 17:26:36.114357, 440
2015-10-27 17:26:36.130103, 439
2015-10-27 17:26:36.130195, 439
2015-10-27 17:26:36.130261, 439
2015-10-27 17:26:36.146090, 438
2015-10-27 17:26:36.146177, 438
2015-10-27 17:26:36.146241, 439
2015-10-27 17:26:36.162142, 438
2015-10-27 17:26:36.162234, 441
2015-10-27 17:26:36.162300, 442
2015-10-27 17:26:36.178012, 441
2015-10-27 17:26:36.178101, 440
2015-10-27 17:26:36.178165, 439
2015-10-27 17:26:36.194006, 441
2015-10-27 17:26:36.194096, 442
2015-10-27 17:26:36.194160, 442
2015-10-27 17:26:36.210070, 443
2015-10-27 17:26:36.210191, 444
2015-10-27 17:26:36.210255, 448
2015-10-27 17:26:36.225935, 448
2015-10-27 17:26:36.226027, 447
2015-10-27 17:26:36.226092, 450
2015-10-27 17:26:36.242070, 453
2015-10-27 17:26:36.242189, 453
2015-10-27 17:26:36.242256, 454
2015-10-27 17:26:36.258051, 457
2015-10-27 17:26:36.258147, 461
2015-10-27 17:26:36.258212, 462
2015-10-27 17:26:36.273825, 464
2015-10-27 17:26:36.273904, 464
2015-10-27 17:26:36.273958, 458
2015-10-27 17:26:36.289985, 452
2015-10-27 17:26:36.290098, 449
2015-10-27 17:26:36.290165, 448
2015-10-27 17:26:36.305932, 448
2015-10-27 17:26:36.306103, 450
2015-10-27 17:26:36.306224, 453
2015-10-27 17:26:36.322044, 453
2015-10-27 17:26:36.322178, 452
2015-10-27 17:26:36.322246, 453
2015-10-27 17:26:36.337965, 453
2015-10-27 17:26:36.338123, 453
2015-10-27 17:26:36.338190, 453
2015-10-27 17:26:36.338253, 455
2015-10-27 17:26:36.353984, 458
2015-10-27 17:26:36.354073, 459
2015-10-27 17:26:36.354138, 461
2015-10-27 17:26:36.370095, 465
2015-10-27 17:26:36.370184, 476
2015-10-27 17:26:36.370249, 507
2015-10-27 17:26:36.386031, 584
2015-10-27 17:26:36.386122, 684
2015-10-27 17:26:36.386187, 705
2015-10-27 17:26:36.401939, 628
2015-10-27 17:26:36.402028, 457
2015-10-27 17:26:36.402093, 325
2015-10-27 17:26:36.417926, 214
2015-10-27 17:26:36.418016, 194
2015-10-27 17:26:36.418081, 304
2015-10-27 17:26:36.433981, 408
2015-10-27 17:26:36.434071, 457
2015-10-27 17:26:36.434137, 486
2015-10-27 17:26:36.450090, 504
2015-10-27 17:26:36.450182, 511
2015-10-27 17:26:36.450248, 514
2015-10-27 17:26:36.465798, 518
2015-10-27 17:26:36.465891, 522
2015-10-27 17:26:36.465955, 529
2015-10-27 17:26:36.481847, 531
2015-10-27 17:26:36.481947, 532
2015-10-27 17:26:36.482012, 534
2015-10-27 17:26:36.498116, 537
2015-10-27 17:26:36.498211, 542
2015-10-27 17:26:36.498277, 545
2015-10-27 17:26:36.514029, 546
2015-10-27 17:26:36.514123, 549
2015-10-27 17:26:36.514188, 554
2015-10-27 17:26:36.529954, 560
2015-10-27 17:26:36.530049, 562
2015-10-27 17:26:36.530114, 565
2015-10-27 17:26:36.546061, 569
2015-10-27 17:26:36.546176, 575
2015-10-27 17:26:36.546271, 578
2015-10-27 17:26:36.561832, 583
2015-10-27 17:26:36.561940, 591
2015-10-27 17:26:36.562006, 599
2015-10-27 17:26:36.577842, 606
2015-10-27 17:26:36.577950, 613
2015-10-27 17:26:36.578016, 623
2015-10-27 17:26:36.578079, 633
2015-10-27 17:26:36.593843, 642
2015-10-27 17:26:36.593983, 654
2015-10-27 17:26:36.594058, 664
2015-10-27 17:26:36.609967, 673
2015-10-27 17:26:36.610056, 681
2015-10-27 17:26:36.610120, 688
2015-10-27 17:26:36.625964, 694
2015-10-27 17:26:36.626054, 697
2015-10-27 17:26:36.626119, 699
2015-10-27 17:26:36.641929, 696
2015-10-27 17:26:36.642019, 690
2015-10-27 17:26:36.642084, 685
2015-10-27 17:26:36.657674, 677
2015-10-27 17:26:36.657746, 665
2015-10-27 17:26:36.657796, 649
2015-10-27 17:26:36.673773, 633
2015-10-27 17:26:36.673965, 614
2015-10-27 17:26:36.674007, 593
2015-10-27 17:26:36.689738, 574
2015-10-27 17:26:36.689864, 555
2015-10-27 17:26:36.689961, 538
2015-10-27 17:26:36.705771, 524
2015-10-27 17:26:36.705925, 512
2015-10-27 17:26:36.705995, 500
2015-10-27 17:26:36.722050, 491
2015-10-27 17:26:36.722201, 483
2015-10-27 17:26:36.722332, 477
2015-10-27 17:26:36.737821, 472
2015-10-27 17:26:36.737915, 471
2015-10-27 17:26:36.737981, 471
2015-10-27 17:26:36.753877, 472
2015-10-27 17:26:36.753971, 472
2015-10-27 17:26:36.754036, 473
2015-10-27 17:26:36.769845, 474
2015-10-27 17:26:36.769995, 475
2015-10-27 17:26:36.770160, 476
2015-10-27 17:26:36.785804, 477
2015-10-27 17:26:36.785897, 480
2015-10-27 17:26:36.785962, 483
2015-10-27 17:26:36.801670, 486
2015-10-27 17:26:36.801780, 488
2015-10-27 17:26:36.801846, 490
2015-10-27 17:26:36.817622, 491
2015-10-27 17:26:36.817731, 493
2015-10-27 17:26:36.817797, 495
2015-10-27 17:26:36.833889, 498
2015-10-27 17:26:36.834003, 503
2015-10-27 17:26:36.834070, 503
2015-10-27 17:26:36.834133, 499
2015-10-27 17:26:36.849896, 499
2015-10-27 17:26:36.849985, 503
2015-10-27 17:26:36.850050, 505
2015-10-27 17:26:36.865724, 504
2015-10-27 17:26:36.865942, 506
2015-10-27 17:26:36.866031, 507
2015-10-27 17:26:36.881847, 506
2015-10-27 17:26:36.881941, 506
2015-10-27 17:26:36.882006, 506
2015-10-27 17:26:36.897930, 507
2015-10-27 17:26:36.898022, 509
2015-10-27 17:26:36.898088, 510
2015-10-27 17:26:36.913784, 508
2015-10-27 17:26:36.913874, 507
2015-10-27 17:26:36.913939, 508
2015-10-27 17:26:36.929948, 511
2015-10-27 17:26:36.930037, 513
2015-10-27 17:26:36.930122, 513
2015-10-27 17:26:36.945625, 512
2015-10-27 17:26:36.945713, 512
2015-10-27 17:26:36.945778, 513
2015-10-27 17:26:36.961653, 513
2015-10-27 17:26:36.961765, 513
2015-10-27 17:26:36.961833, 514
2015-10-27 17:26:36.977825, 513
2015-10-27 17:26:36.977941, 513
2015-10-27 17:26:36.978007, 514
2015-10-27 17:26:36.993861, 516
2015-10-27 17:26:36.994027, 518
2015-10-27 17:26:36.994157, 520
2015-10-27 17:26:37.009715, 522
2015-10-27 17:26:37.009808, 523
2015-10-27 17:26:37.009873, 523
2015-10-27 17:26:37.025792, 523
2015-10-27 17:26:37.025963, 523
2015-10-27 17:26:37.026089, 523
2015-10-27 17:26:37.041732, 522
2015-10-27 17:26:37.041841, 523
2015-10-27 17:26:37.041908, 524
2015-10-27 17:26:37.057502, 525
2015-10-27 17:26:37.057611, 524
2015-10-27 17:26:37.057678, 524
2015-10-27 17:26:37.073503, 525
2015-10-27 17:26:37.073583, 525
2015-10-27 17:26:37.073623, 524
2015-10-27 17:26:37.073660, 524
2015-10-27 17:26:37.089695, 523
2015-10-27 17:26:37.089848, 523
2015-10-27 17:26:37.090107, 524
2015-10-27 17:26:37.105597, 526
2015-10-27 17:26:37.105663, 526
2015-10-27 17:26:37.105707, 525
2015-10-27 17:26:37.121527, 522
2015-10-27 17:26:37.121590, 521
2015-10-27 17:26:37.121635, 525
2015-10-27 17:26:37.137517, 526
2015-10-27 17:26:37.137581, 525
2015-10-27 17:26:37.137625, 526
2015-10-27 17:26:37.153909, 528
2015-10-27 17:26:37.154049, 529
2015-10-27 17:26:37.154153, 529
2015-10-27 17:26:37.169725, 531
2015-10-27 17:26:37.169817, 529
2015-10-27 17:26:37.169882, 519
2015-10-27 17:26:37.185759, 511
2015-10-27 17:26:37.185851, 509
2015-10-27 17:26:37.185915, 510
2015-10-27 17:26:37.201638, 511
2015-10-27 17:26:37.201730, 512
2015-10-27 17:26:37.201796, 513
2015-10-27 17:26:37.217613, 512
2015-10-27 17:26:37.217705, 513
2015-10-27 17:26:37.217770, 510
2015-10-27 17:26:37.233673, 509
2015-10-27 17:26:37.233766, 511
2015-10-27 17:26:37.233831, 510
2015-10-27 17:26:37.249673, 511
2015-10-27 17:26:37.249765, 513
2015-10-27 17:26:37.249831, 511
2015-10-27 17:26:37.265515, 514
2015-10-27 17:26:37.265609, 521
2015-10-27 17:26:37.265673, 533
2015-10-27 17:26:37.281689, 579
2015-10-27 17:26:37.281820, 673
2015-10-27 17:26:37.281892, 741
2015-10-27 17:26:37.297453, 715
2015-10-27 17:26:37.297562, 600
2015-10-27 17:26:37.297630, 443
2015-10-27 17:26:37.313454, 336
2015-10-27 17:26:37.313564, 236
2015-10-27 17:26:37.313631, 282
2015-10-27 17:26:37.313694, 396
2015-10-27 17:26:37.329441, 466
2015-10-27 17:26:37.329494, 497
2015-10-27 17:26:37.329531, 518
2015-10-27 17:26:37.345515, 529
2015-10-27 17:26:37.345603, 532
2015-10-27 17:26:37.345675, 536
2015-10-27 17:26:37.361484, 540
2015-10-27 17:26:37.361575, 541
2015-10-27 17:26:37.361618, 542
2015-10-27 17:26:37.377521, 543
2015-10-27 17:26:37.377684, 544
2015-10-27 17:26:37.377792, 547
2015-10-27 17:26:37.393422, 548
2015-10-27 17:26:37.393477, 549
2015-10-27 17:26:37.393515, 550
2015-10-27 17:26:37.409390, 552
2015-10-27 17:26:37.409442, 555
2015-10-27 17:26:37.409479, 558
2015-10-27 17:26:37.425804, 561
2015-10-27 17:26:37.426057, 563
2015-10-27 17:26:37.426131, 568
2015-10-27 17:26:37.441750, 573
2015-10-27 17:26:37.441846, 577
2015-10-27 17:26:37.441910, 580
2015-10-27 17:26:37.457651, 583
2015-10-27 17:26:37.457792, 586
2015-10-27 17:26:37.457869, 591
2015-10-27 17:26:37.473369, 596
2015-10-27 17:26:37.473425, 603
2015-10-27 17:26:37.473464, 609
2015-10-27 17:26:37.489502, 619
2015-10-27 17:26:37.489597, 627
2015-10-27 17:26:37.489662, 637
2015-10-27 17:26:37.505725, 647
2015-10-27 17:26:37.505842, 653
2015-10-27 17:26:37.505907, 663
2015-10-27 17:26:37.521590, 671
2015-10-27 17:26:37.521699, 675
2015-10-27 17:26:37.521765, 677
2015-10-27 17:26:37.537408, 676
2015-10-27 17:26:37.537517, 672
2015-10-27 17:26:37.537583, 668
2015-10-27 17:26:37.553374, 663
2015-10-27 17:26:37.553484, 654
2015-10-27 17:26:37.553551, 640
2015-10-27 17:26:37.553614, 622
2015-10-27 17:26:37.569349, 602
2015-10-27 17:26:37.569402, 581
2015-10-27 17:26:37.569439, 558
2015-10-27 17:26:37.585494, 538
2015-10-27 17:26:37.585661, 522
2015-10-27 17:26:37.585797, 505
2015-10-27 17:26:37.601453, 490
2015-10-27 17:26:37.601549, 478
2015-10-27 17:26:37.601622, 467
2015-10-27 17:26:37.617648, 460
2015-10-27 17:26:37.617739, 454
2015-10-27 17:26:37.617804, 450
2015-10-27 17:26:37.633689, 447
2015-10-27 17:26:37.633804, 444
2015-10-27 17:26:37.633870, 441
2015-10-27 17:26:37.649549, 439
2015-10-27 17:26:37.649638, 439
2015-10-27 17:26:37.649703, 438
2015-10-27 17:26:37.665421, 438
2015-10-27 17:26:37.665569, 438
2015-10-27 17:26:37.665685, 440
2015-10-27 17:26:37.681704, 444
2015-10-27 17:26:37.681810, 444
2015-10-27 17:26:37.681898, 444
2015-10-27 17:26:37.697666, 446
2015-10-27 17:26:37.697783, 449
2015-10-27 17:26:37.697849, 453
2015-10-27 17:26:37.713595, 455
2015-10-27 17:26:37.713689, 455
2015-10-27 17:26:37.713754, 457
2015-10-27 17:26:37.729660, 459
2015-10-27 17:26:37.729754, 462
2015-10-27 17:26:37.729840, 464
2015-10-27 17:26:37.745561, 466
2015-10-27 17:26:37.745655, 468
2015-10-27 17:26:37.745732, 468
2015-10-27 17:26:37.761596, 468
2015-10-27 17:26:37.761707, 466
2015-10-27 17:26:37.761773, 467
2015-10-27 17:26:37.777545, 468
2015-10-27 17:26:37.777714, 468
2015-10-27 17:26:37.777781, 465
2015-10-27 17:26:37.793502, 466
2015-10-27 17:26:37.793623, 466
2015-10-27 17:26:37.793689, 465
2015-10-27 17:26:37.793752, 465
2015-10-27 17:26:37.809637, 465
2015-10-27 17:26:37.809727, 465
2015-10-27 17:26:37.809791, 464
2015-10-27 17:26:37.825620, 463
2015-10-27 17:26:37.825711, 465
2015-10-27 17:26:37.825776, 468
2015-10-27 17:26:37.841578, 470
2015-10-27 17:26:37.841669, 471
2015-10-27 17:26:37.841735, 470
2015-10-27 17:26:37.857740, 470
2015-10-27 17:26:37.857830, 469
2015-10-27 17:26:37.857895, 468
2015-10-27 17:26:37.873382, 470
2015-10-27 17:26:37.873544, 471
2015-10-27 17:26:37.873669, 472
2015-10-27 17:26:37.889451, 473
2015-10-27 17:26:37.889675, 474
2015-10-27 17:26:37.889761, 475
2015-10-27 17:26:37.905593, 474
2015-10-27 17:26:37.905709, 473
2015-10-27 17:26:37.905775, 474
2015-10-27 17:26:37.921270, 478
2015-10-27 17:26:37.921334, 480
2015-10-27 17:26:37.921380, 481
2015-10-27 17:26:37.937565, 480
2015-10-27 17:26:37.937679, 480
2015-10-27 17:26:37.937744, 480
2015-10-27 17:26:37.953468, 483
2015-10-27 17:26:37.953559, 484
2015-10-27 17:26:37.953624, 484
2015-10-27 17:26:37.969306, 484
2015-10-27 17:26:37.969400, 485
2015-10-27 17:26:37.969466, 488
2015-10-27 17:26:37.985501, 488
2015-10-27 17:26:37.985628, 489
2015-10-27 17:26:37.985694, 488
2015-10-27 17:26:38.001566, 487
2015-10-27 17:26:38.001718, 487
2015-10-27 17:26:38.001809, 490
2015-10-27 17:26:38.017475, 492
2015-10-27 17:26:38.017585, 493
2015-10-27 17:26:38.017650, 496
2015-10-27 17:26:38.033320, 499
2015-10-27 17:26:38.033427, 501
2015-10-27 17:26:38.033493, 500
2015-10-27 17:26:38.049452, 496
2015-10-27 17:26:38.049561, 499
2015-10-27 17:26:38.049626, 505
2015-10-27 17:26:38.049689, 509
2015-10-27 17:26:38.065370, 512
2015-10-27 17:26:38.065457, 512
2015-10-27 17:26:38.065522, 512
2015-10-27 17:26:38.081640, 510
2015-10-27 17:26:38.081729, 513
2015-10-27 17:26:38.081793, 515
2015-10-27 17:26:38.097465, 510
2015-10-27 17:26:38.097557, 502
2015-10-27 17:26:38.097622, 497
2015-10-27 17:26:38.113579, 494
2015-10-27 17:26:38.113684, 493
2015-10-27 17:26:38.113772, 494
2015-10-27 17:26:38.129422, 495
2015-10-27 17:26:38.129628, 497
2015-10-27 17:26:38.129705, 498
2015-10-27 17:26:38.145370, 496
2015-10-27 17:26:38.145527, 496
2015-10-27 17:26:38.145653, 497
2015-10-27 17:26:38.161498, 497
2015-10-27 17:26:38.161593, 497
2015-10-27 17:26:38.161657, 496
2015-10-27 17:26:38.177322, 496
2015-10-27 17:26:38.177416, 497
2015-10-27 17:26:38.177480, 499
2015-10-27 17:26:38.193575, 505
2015-10-27 17:26:38.193691, 523
2015-10-27 17:26:38.193757, 579
2015-10-27 17:26:38.209488, 681
2015-10-27 17:26:38.209581, 746
2015-10-27 17:26:38.209647, 723
2015-10-27 17:26:38.225417, 598
2015-10-27 17:26:38.225511, 437
2015-10-27 17:26:38.225576, 309
2015-10-27 17:26:38.241468, 208
2015-10-27 17:26:38.241596, 275
2015-10-27 17:26:38.241662, 391
2015-10-27 17:26:38.257304, 453
2015-10-27 17:26:38.257413, 482
2015-10-27 17:26:38.257479, 500
2015-10-27 17:26:38.273252, 507
2015-10-27 17:26:38.273373, 507
2015-10-27 17:26:38.273439, 508
2015-10-27 17:26:38.289220, 511
2015-10-27 17:26:38.289332, 513
2015-10-27 17:26:38.289399, 515
2015-10-27 17:26:38.289463, 516
2015-10-27 17:26:38.305581, 515
2015-10-27 17:26:38.305714, 516
2015-10-27 17:26:38.305783, 517
2015-10-27 17:26:38.321606, 516
2015-10-27 17:26:38.321697, 516
2015-10-27 17:26:38.321761, 517
2015-10-27 17:26:38.337312, 521
2015-10-27 17:26:38.337402, 524
2015-10-27 17:26:38.337468, 526
2015-10-27 17:26:38.353267, 529
2015-10-27 17:26:38.353377, 529
2015-10-27 17:26:38.353462, 530
2015-10-27 17:26:38.369222, 532
2015-10-27 17:26:38.369308, 535
2015-10-27 17:26:38.369576, 540
2015-10-27 17:26:38.385174, 544
2015-10-27 17:26:38.385229, 551
2015-10-27 17:26:38.385267, 557
2015-10-27 17:26:38.401260, 564
2015-10-27 17:26:38.401351, 571
2015-10-27 17:26:38.401418, 580
2015-10-27 17:26:38.417213, 591
2015-10-27 17:26:38.417277, 599
2015-10-27 17:26:38.417322, 606
2015-10-27 17:26:38.433187, 615
2015-10-27 17:26:38.433273, 624
2015-10-27 17:26:38.433339, 630
2015-10-27 17:26:38.449161, 632
2015-10-27 17:26:38.449255, 630
2015-10-27 17:26:38.449327, 627
2015-10-27 17:26:38.465193, 626
2015-10-27 17:26:38.465285, 622
2015-10-27 17:26:38.465349, 613
2015-10-27 17:26:38.481133, 602
2015-10-27 17:26:38.481188, 587
2015-10-27 17:26:38.481263, 568
2015-10-27 17:26:38.497096, 544
2015-10-27 17:26:38.497163, 522
2015-10-27 17:26:38.497200, 499
2015-10-27 17:26:38.513093, 479
2015-10-27 17:26:38.513159, 459
2015-10-27 17:26:38.513196, 440
2015-10-27 17:26:38.529079, 424
2015-10-27 17:26:38.529143, 411
2015-10-27 17:26:38.529193, 401
2015-10-27 17:26:38.529231, 394
2015-10-27 17:26:38.545605, 387
2015-10-27 17:26:38.545752, 381
2015-10-27 17:26:38.545824, 377
2015-10-27 17:26:38.561189, 375
2015-10-27 17:26:38.561276, 373
2015-10-27 17:26:38.561339, 374
2015-10-27 17:26:38.577227, 375
2015-10-27 17:26:38.577337, 375
2015-10-27 17:26:38.577408, 377
2015-10-27 17:26:38.593153, 377
2015-10-27 17:26:38.593206, 380
2015-10-27 17:26:38.593243, 383
2015-10-27 17:26:38.609094, 382
2015-10-27 17:26:38.609234, 382
2015-10-27 17:26:38.609299, 382
2015-10-27 17:26:38.625158, 385
2015-10-27 17:26:38.625256, 388
2015-10-27 17:26:38.625336, 389
2015-10-27 17:26:38.641122, 389
2015-10-27 17:26:38.641224, 390
2015-10-27 17:26:38.641295, 394
2015-10-27 17:26:38.657128, 397
2015-10-27 17:26:38.657237, 398
2015-10-27 17:26:38.657321, 399
2015-10-27 17:26:38.673111, 398
2015-10-27 17:26:38.673199, 400
2015-10-27 17:26:38.673264, 401
2015-10-27 17:26:38.689085, 402
2015-10-27 17:26:38.689142, 401
2015-10-27 17:26:38.689180, 400
2015-10-27 17:26:38.705077, 398
2015-10-27 17:26:38.705183, 397
2015-10-27 17:26:38.705265, 398
2015-10-27 17:26:38.721109, 401
2015-10-27 17:26:38.721209, 403
2015-10-27 17:26:38.721253, 402
2015-10-27 17:26:38.737091, 401
2015-10-27 17:26:38.737200, 400
2015-10-27 17:26:38.737272, 398
2015-10-27 17:26:38.753133, 396
2015-10-27 17:26:38.753254, 395
2015-10-27 17:26:38.753328, 396
2015-10-27 17:26:38.769120, 395
2015-10-27 17:26:38.769189, 395
2015-10-27 17:26:38.769227, 397
2015-10-27 17:26:38.769262, 401
2015-10-27 17:26:38.785087, 404
2015-10-27 17:26:38.785177, 404
2015-10-27 17:26:38.785246, 406
2015-10-27 17:26:38.801122, 408
2015-10-27 17:26:38.801211, 411
2015-10-27 17:26:38.801283, 413
2015-10-27 17:26:38.817096, 412
2015-10-27 17:26:38.817194, 413
2015-10-27 17:26:38.817273, 416
2015-10-27 17:26:38.833063, 419
2015-10-27 17:26:38.833155, 422
2015-10-27 17:26:38.833228, 422
2015-10-27 17:26:38.849106, 423
2015-10-27 17:26:38.849191, 423
2015-10-27 17:26:38.849252, 423
2015-10-27 17:26:38.865082, 426
2015-10-27 17:26:38.865210, 427
2015-10-27 17:26:38.865291, 428
2015-10-27 17:26:38.881009, 428
2015-10-27 17:26:38.881106, 428
2015-10-27 17:26:38.881184, 430
2015-10-27 17:26:38.897132, 434
2015-10-27 17:26:38.897228, 435
2015-10-27 17:26:38.897299, 435
2015-10-27 17:26:38.913007, 435
2015-10-27 17:26:38.913107, 437
2015-10-27 17:26:38.913175, 439
2015-10-27 17:26:38.929322, 440
2015-10-27 17:26:38.929413, 443
2015-10-27 17:26:38.929478, 444
2015-10-27 17:26:38.945208, 445
2015-10-27 17:26:38.945300, 448
2015-10-27 17:26:38.945365, 449
2015-10-27 17:26:38.961359, 449
2015-10-27 17:26:38.961480, 450
2015-10-27 17:26:38.961546, 452
2015-10-27 17:26:38.977033, 454
2015-10-27 17:26:38.977127, 456
2015-10-27 17:26:38.977193, 455
2015-10-27 17:26:38.993211, 455
2015-10-27 17:26:38.993320, 456
2015-10-27 17:26:38.993386, 462
2015-10-27 17:26:39.009002, 466
2015-10-27 17:26:39.009112, 466
2015-10-27 17:26:39.009179, 463
2015-10-27 17:26:39.025015, 468
2015-10-27 17:26:39.025127, 475
2015-10-27 17:26:39.025194, 480
2015-10-27 17:26:39.025258, 485
2015-10-27 17:26:39.041153, 490
2015-10-27 17:26:39.041287, 496
2015-10-27 17:26:39.041384, 502
2015-10-27 17:26:39.057065, 510
2015-10-27 17:26:39.057166, 515
2015-10-27 17:26:39.057265, 510
2015-10-27 17:26:39.073097, 501
2015-10-27 17:26:39.073250, 494
2015-10-27 17:26:39.073364, 494
2015-10-27 17:26:39.089267, 498
2015-10-27 17:26:39.089420, 499
2015-10-27 17:26:39.089548, 500
2015-10-27 17:26:39.105212, 500
2015-10-27 17:26:39.105303, 500
2015-10-27 17:26:39.105426, 500
2015-10-27 17:26:39.121188, 499
2015-10-27 17:26:39.121278, 501
2015-10-27 17:26:39.121343, 503
2015-10-27 17:26:39.136937, 505
2015-10-27 17:26:39.137002, 505
2015-10-27 17:26:39.137048, 507
2015-10-27 17:26:39.152941, 510
2015-10-27 17:26:39.152997, 512
2015-10-27 17:26:39.153034, 516
2015-10-27 17:26:39.169133, 527
2015-10-27 17:26:39.169224, 566
2015-10-27 17:26:39.169289, 663
2015-10-27 17:26:39.185063, 759
2015-10-27 17:26:39.185157, 775
2015-10-27 17:26:39.185222, 689
2015-10-27 17:26:39.201039, 518
2015-10-27 17:26:39.201131, 382
2015-10-27 17:26:39.201192, 243
2015-10-27 17:26:39.216902, 250
2015-10-27 17:26:39.216969, 373
2015-10-27 17:26:39.217006, 461
2015-10-27 17:26:39.233061, 501
2015-10-27 17:26:39.233138, 525
2015-10-27 17:26:39.233183, 539
2015-10-27 17:26:39.249117, 544
2015-10-27 17:26:39.249258, 547
2015-10-27 17:26:39.249324, 550
2015-10-27 17:26:39.264963, 554
2015-10-27 17:26:39.265072, 556
2015-10-27 17:26:39.265139, 557
2015-10-27 17:26:39.265201, 557
2015-10-27 17:26:39.281097, 560
2015-10-27 17:26:39.281187, 565
2015-10-27 17:26:39.281252, 566
2015-10-27 17:26:39.297046, 567
2015-10-27 17:26:39.297196, 570
2015-10-27 17:26:39.297324, 572
2015-10-27 17:26:39.313303, 574
2015-10-27 17:26:39.313441, 578
2015-10-27 17:26:39.313550, 583
2015-10-27 17:26:39.329212, 584
2015-10-27 17:26:39.329302, 588
2015-10-27 17:26:39.329368, 592
2015-10-27 17:26:39.345104, 598
2015-10-27 17:26:39.345193, 605
2015-10-27 17:26:39.345258, 612
2015-10-27 17:26:39.361202, 617
2015-10-27 17:26:39.361290, 623
2015-10-27 17:26:39.361354, 629
2015-10-27 17:26:39.376941, 636
2015-10-27 17:26:39.377033, 646
2015-10-27 17:26:39.377099, 657
2015-10-27 17:26:39.392926, 668
2015-10-27 17:26:39.393030, 679
2015-10-27 17:26:39.393096, 689
2015-10-27 17:26:39.408941, 698
2015-10-27 17:26:39.409052, 704
2015-10-27 17:26:39.409120, 709
2015-10-27 17:26:39.425140, 712
2015-10-27 17:26:39.425263, 713
2015-10-27 17:26:39.425328, 709
2015-10-27 17:26:39.441056, 703
2015-10-27 17:26:39.441241, 695
2015-10-27 17:26:39.441340, 688
2015-10-27 17:26:39.457065, 677
2015-10-27 17:26:39.457178, 661
2015-10-27 17:26:39.457306, 642
2015-10-27 17:26:39.473024, 620
2015-10-27 17:26:39.473133, 597
2015-10-27 17:26:39.473198, 576
2015-10-27 17:26:39.489135, 557
2015-10-27 17:26:39.489300, 539
2015-10-27 17:26:39.489373, 522
2015-10-27 17:26:39.505097, 508
2015-10-27 17:26:39.505261, 496
2015-10-27 17:26:39.505328, 488
2015-10-27 17:26:39.505390, 481
2015-10-27 17:26:39.521167, 475
2015-10-27 17:26:39.521257, 471
2015-10-27 17:26:39.521322, 466
2015-10-27 17:26:39.537081, 462
2015-10-27 17:26:39.537171, 464
2015-10-27 17:26:39.537235, 466
2015-10-27 17:26:39.553178, 465
2015-10-27 17:26:39.553269, 466
2015-10-27 17:26:39.553334, 465
2015-10-27 17:26:39.568821, 467
2015-10-27 17:26:39.568896, 470
2015-10-27 17:26:39.568949, 474
2015-10-27 17:26:39.585133, 476
2015-10-27 17:26:39.585224, 477
2015-10-27 17:26:39.585289, 480
2015-10-27 17:26:39.601039, 482
2015-10-27 17:26:39.601131, 484
2015-10-27 17:26:39.601196, 486
2015-10-27 17:26:39.616886, 488
2015-10-27 17:26:39.616978, 490
2015-10-27 17:26:39.617044, 491
2015-10-27 17:26:39.632870, 491
2015-10-27 17:26:39.632996, 492
2015-10-27 17:26:39.633116, 493
2015-10-27 17:26:39.648860, 496
2015-10-27 17:26:39.648950, 498
2015-10-27 17:26:39.649015, 499
2015-10-27 17:26:39.664861, 498
2015-10-27 17:26:39.664953, 497
2015-10-27 17:26:39.665018, 498
2015-10-27 17:26:39.681162, 498
2015-10-27 17:26:39.681321, 497
2015-10-27 17:26:39.681441, 496
2015-10-27 17:26:39.696872, 495
2015-10-27 17:26:39.697001, 496
2015-10-27 17:26:39.697071, 496
2015-10-27 17:26:39.713119, 496
2015-10-27 17:26:39.713287, 498
2015-10-27 17:26:39.713406, 498
2015-10-27 17:26:39.728940, 498
2015-10-27 17:26:39.729048, 497
2015-10-27 17:26:39.729114, 497
2015-10-27 17:26:39.744972, 497
2015-10-27 17:26:39.745136, 499
2015-10-27 17:26:39.745205, 501
2015-10-27 17:26:39.745268, 501
2015-10-27 17:26:39.761091, 502
2015-10-27 17:26:39.761179, 502
2015-10-27 17:26:39.761243, 505
2015-10-27 17:26:39.777052, 505
2015-10-27 17:26:39.777141, 505
2015-10-27 17:26:39.777206, 506
2015-10-27 17:26:39.793165, 507
2015-10-27 17:26:39.793255, 510
2015-10-27 17:26:39.793319, 512
2015-10-27 17:26:39.809064, 512
2015-10-27 17:26:39.809159, 511
2015-10-27 17:26:39.809225, 512
2015-10-27 17:26:39.824793, 514
2015-10-27 17:26:39.824883, 513
2015-10-27 17:26:39.824949, 511
2015-10-27 17:26:39.841007, 509
2015-10-27 17:26:39.841096, 511
2015-10-27 17:26:39.841162, 513
2015-10-27 17:26:39.856780, 515
2015-10-27 17:26:39.856866, 516
2015-10-27 17:26:39.856930, 517
2015-10-27 17:26:39.872753, 518
2015-10-27 17:26:39.872845, 518
2015-10-27 17:26:39.872912, 520
2015-10-27 17:26:39.889170, 522
2015-10-27 17:26:39.889334, 522
2015-10-27 17:26:39.889480, 521
2015-10-27 17:26:39.904977, 521
2015-10-27 17:26:39.905071, 522
2015-10-27 17:26:39.905150, 524
2015-10-27 17:26:39.921010, 525
2015-10-27 17:26:39.921137, 524
2015-10-27 17:26:39.921202, 522
2015-10-27 17:26:39.936717, 524
2015-10-27 17:26:39.936811, 527
2015-10-27 17:26:39.936876, 527
2015-10-27 17:26:39.952758, 528
2015-10-27 17:26:39.952856, 530
2015-10-27 17:26:39.952932, 531
2015-10-27 17:26:39.969009, 532
2015-10-27 17:26:39.969135, 532
2015-10-27 17:26:39.969229, 531
2015-10-27 17:26:39.984959, 531
2015-10-27 17:26:39.985066, 533
2015-10-27 17:26:39.985132, 533
2015-10-27 17:26:40.000963, 536
2015-10-27 17:26:40.001073, 536
2015-10-27 17:26:40.001139, 532
2015-10-27 17:26:40.001201, 534
2015-10-27 17:26:40.016870, 539
2015-10-27 17:26:40.017003, 541
2015-10-27 17:26:40.017110, 543
2015-10-27 17:26:40.032894, 545
2015-10-27 17:26:40.033177, 548
2015-10-27 17:26:40.033296, 550
2015-10-27 17:26:40.049035, 552
2015-10-27 17:26:40.049124, 554
2015-10-27 17:26:40.049187, 547
2015-10-27 17:26:40.064802, 536
2015-10-27 17:26:40.064916, 531
2015-10-27 17:26:40.065006, 531
2015-10-27 17:26:40.080956, 533
2015-10-27 17:26:40.081047, 533
2015-10-27 17:26:40.081111, 530
2015-10-27 17:26:40.096913, 531
2015-10-27 17:26:40.097002, 532
2015-10-27 17:26:40.097067, 531
2015-10-27 17:26:40.112916, 528
2015-10-27 17:26:40.113008, 527
2015-10-27 17:26:40.113074, 528
2015-10-27 17:26:40.128964, 528
2015-10-27 17:26:40.129054, 527
2015-10-27 17:26:40.129119, 526
2015-10-27 17:26:40.144921, 526
2015-10-27 17:26:40.145011, 526
2015-10-27 17:26:40.145075, 526
2015-10-27 17:26:40.160773, 537
2015-10-27 17:26:40.160864, 578
2015-10-27 17:26:40.160929, 673
2015-10-27 17:26:40.176904, 771
2015-10-27 17:26:40.176997, 790
2015-10-27 17:26:40.177062, 702
2015-10-27 17:26:40.192973, 524
2015-10-27 17:26:40.193095, 373
2015-10-27 17:26:40.193161, 226
2015-10-27 17:26:40.208893, 232
2015-10-27 17:26:40.209001, 356
2015-10-27 17:26:40.209067, 447
2015-10-27 17:26:40.224952, 486
2015-10-27 17:26:40.225105, 508
2015-10-27 17:26:40.225188, 521
2015-10-27 17:26:40.240923, 526
2015-10-27 17:26:40.241034, 528
2015-10-27 17:26:40.241100, 528
2015-10-27 17:26:40.241163, 529
2015-10-27 17:26:40.256942, 530
2015-10-27 17:26:40.257031, 534
2015-10-27 17:26:40.257095, 538
2015-10-27 17:26:40.273609, 539
2015-10-27 17:26:40.273738, 539
2015-10-27 17:26:40.273845, 539
2015-10-27 17:26:40.288834, 539
2015-10-27 17:26:40.288924, 540
2015-10-27 17:26:40.289072, 540
2015-10-27 17:26:40.305015, 542
2015-10-27 17:26:40.305129, 545
2015-10-27 17:26:40.305194, 545
2015-10-27 17:26:40.320688, 548
2015-10-27 17:26:40.320768, 550
2015-10-27 17:26:40.320818, 553
2015-10-27 17:26:40.336635, 554
2015-10-27 17:26:40.336687, 558
2015-10-27 17:26:40.336725, 562
2015-10-27 17:26:40.352698, 568
2015-10-27 17:26:40.352752, 573
2015-10-27 17:26:40.352790, 580
2015-10-27 17:26:40.368637, 588
2015-10-27 17:26:40.368721, 595
2015-10-27 17:26:40.368760, 603
2015-10-27 17:26:40.384673, 610
2015-10-27 17:26:40.384736, 619
2015-10-27 17:26:40.384780, 628
2015-10-27 17:26:40.400631, 634
2015-10-27 17:26:40.400697, 640
2015-10-27 17:26:40.400742, 643
2015-10-27 17:26:40.416723, 644
2015-10-27 17:26:40.416854, 644
2015-10-27 17:26:40.416921, 641
2015-10-27 17:26:40.432682, 634
2015-10-27 17:26:40.432775, 626
2015-10-27 17:26:40.432841, 616
2015-10-27 17:26:40.448826, 605
2015-10-27 17:26:40.448938, 590
2015-10-27 17:26:40.449004, 571
2015-10-27 17:26:40.464681, 548
2015-10-27 17:26:40.464892, 525
2015-10-27 17:26:40.465040, 503
2015-10-27 17:26:40.480712, 484
2015-10-27 17:26:40.480820, 465
2015-10-27 17:26:40.480887, 446
2015-10-27 17:26:40.480949, 431
2015-10-27 17:26:40.496890, 420
2015-10-27 17:26:40.496982, 411
2015-10-27 17:26:40.497046, 405
2015-10-27 17:26:40.512972, 396
2015-10-27 17:26:40.513063, 391
2015-10-27 17:26:40.513141, 388
2015-10-27 17:26:40.528939, 385
2015-10-27 17:26:40.529028, 384
2015-10-27 17:26:40.529093, 384
2015-10-27 17:26:40.544660, 385
2015-10-27 17:26:40.544765, 387
2015-10-27 17:26:40.544849, 390
2015-10-27 17:26:40.560630, 392
2015-10-27 17:26:40.560721, 392
2015-10-27 17:26:40.560786, 394
2015-10-27 17:26:40.576579, 397
2015-10-27 17:26:40.576633, 400
2015-10-27 17:26:40.576670, 404
2015-10-27 17:26:40.592566, 408
2015-10-27 17:26:40.592621, 412
2015-10-27 17:26:40.592658, 415
2015-10-27 17:26:40.608622, 418
2015-10-27 17:26:40.608687, 421
2015-10-27 17:26:40.608731, 424
2015-10-27 17:26:40.624560, 428
2015-10-27 17:26:40.624615, 431
2015-10-27 17:26:40.624653, 431
2015-10-27 17:26:40.641433, 431
2015-10-27 17:26:40.641576, 433
2015-10-27 17:26:40.641659, 434
2015-10-27 17:26:40.656676, 433
2015-10-27 17:26:40.656771, 433
2015-10-27 17:26:40.656836, 434
2015-10-27 17:26:40.672595, 435
2015-10-27 17:26:40.672653, 436
2015-10-27 17:26:40.672691, 435
2015-10-27 17:26:40.688772, 434
2015-10-27 17:26:40.688881, 435
2015-10-27 17:26:40.688948, 435
2015-10-27 17:26:40.704569, 435
2015-10-27 17:26:40.704672, 436
2015-10-27 17:26:40.704734, 438
2015-10-27 17:26:40.720727, 441
2015-10-27 17:26:40.720835, 440
2015-10-27 17:26:40.720900, 438
2015-10-27 17:26:40.720962, 440
2015-10-27 17:26:40.736882, 440
2015-10-27 17:26:40.736971, 439
2015-10-27 17:26:40.737036, 443
2015-10-27 17:26:40.752676, 445
2015-10-27 17:26:40.752858, 445
2015-10-27 17:26:40.752969, 446
2015-10-27 17:26:40.768720, 448
2015-10-27 17:26:40.768810, 449
2015-10-27 17:26:40.768875, 441
2015-10-27 17:26:40.784815, 432
2015-10-27 17:26:40.784907, 428
2015-10-27 17:26:40.784973, 426
2015-10-27 17:26:40.800714, 425
2015-10-27 17:26:40.800780, 426
2015-10-27 17:26:40.800827, 426
2015-10-27 17:26:40.816594, 427
2015-10-27 17:26:40.816658, 430
2015-10-27 17:26:40.816703, 431
2015-10-27 17:26:40.832556, 433
2015-10-27 17:26:40.832625, 435
2015-10-27 17:26:40.832670, 438
2015-10-27 17:26:40.848681, 439
2015-10-27 17:26:40.848836, 440
2015-10-27 17:26:40.848963, 441
2015-10-27 17:26:40.864577, 441
2015-10-27 17:26:40.864643, 443
2015-10-27 17:26:40.864688, 444
2015-10-27 17:26:40.880820, 447
2015-10-27 17:26:40.880938, 448
2015-10-27 17:26:40.880989, 449
2015-10-27 17:26:40.896641, 452
2015-10-27 17:26:40.896805, 455
2015-10-27 17:26:40.896952, 456
2015-10-27 17:26:40.912730, 458
2015-10-27 17:26:40.912851, 460
2015-10-27 17:26:40.912916, 464
2015-10-27 17:26:40.928666, 467
2015-10-27 17:26:40.928775, 468
2015-10-27 17:26:40.928842, 472
2015-10-27 17:26:40.944676, 475
2015-10-27 17:26:40.944824, 477
2015-10-27 17:26:40.944889, 480
2015-10-27 17:26:40.960656, 482
2015-10-27 17:26:40.960762, 483
2015-10-27 17:26:40.960828, 484
2015-10-27 17:26:40.960890, 485
2015-10-27 17:26:40.976532, 487
2015-10-27 17:26:40.976597, 488
2015-10-27 17:26:40.976642, 490
2015-10-27 17:26:40.992526, 492
2015-10-27 17:26:40.992576, 496
2015-10-27 17:26:40.992643, 497
2015-10-27 17:26:41.008621, 496
2015-10-27 17:26:41.008763, 494
2015-10-27 17:26:41.008877, 496
2015-10-27 17:26:41.024533, 503
2015-10-27 17:26:41.024600, 508
2015-10-27 17:26:41.024647, 511
2015-10-27 17:26:41.040725, 514
2015-10-27 17:26:41.040821, 517
2015-10-27 17:26:41.040887, 521
2015-10-27 17:26:41.056574, 525
2015-10-27 17:26:41.056648, 527
2015-10-27 17:26:41.056701, 521
2015-10-27 17:26:41.072683, 510
2015-10-27 17:26:41.072841, 504
2015-10-27 17:26:41.072955, 504
2015-10-27 17:26:41.088507, 505
2015-10-27 17:26:41.088580, 505
2015-10-27 17:26:41.088634, 507
2015-10-27 17:26:41.104514, 506
2015-10-27 17:26:41.104735, 505
2015-10-27 17:26:41.104877, 506
