timestamp,raw_value,wavelet_value
datetime,int,float
T,,
2015-10-17 21:05:11.118138,423,666.55464225381797
2015-10-17 21:05:11.118297,419,485.91626135689359
2015-10-17 21:05:11.134189,414,485.73874782947172
2015-10-17 21:05:11.134376,413,485.56123430204991
2015-10-17 21:05:11.134535,412,485.38372077462805
2015-10-17 21:05:11.149830,409,485.20620724720624
2015-10-17 21:05:11.149932,409,485.02869371978437
2015-10-17 21:05:11.150011,413,484.85118019236256
2015-10-17 21:05:11.166160,414,484.6736666649407
2015-10-17 21:05:11.166347,411,484.49615313751889
2015-10-17 21:05:11.166506,413,484.31863961009708
2015-10-17 21:05:11.182095,416,484.14112608267521
2015-10-17 21:05:11.182451,414,483.96361255525341
2015-10-17 21:05:11.182827,411,483.78609902783154
2015-10-17 21:05:11.198122,411,483.60858550040973
2015-10-17 21:05:11.198312,409,483.43107197298787
2015-10-17 21:05:11.198474,408,483.25355844556606
2015-10-17 21:05:11.214128,410,483.07604491814425
2015-10-17 21:05:11.214315,414,482.89853139072238
2015-10-17 21:05:11.214472,417,482.72101786330057
2015-10-17 21:05:11.229950,420,482.54350433587871
2015-10-17 21:05:11.230143,423,482.3659908084569
2015-10-17 21:05:11.230306,426,482.18847728103503
2015-10-17 21:05:11.246097,429,482.01096375361323
2015-10-17 21:05:11.246300,428,481.83345022619136
2015-10-17 21:05:11.246465,429,481.65593669876955
2015-10-17 21:05:11.262094,434,481.47842317134774
2015-10-17 21:05:11.262290,438,481.30090964392588
2015-10-17 21:05:11.262452,440,481.12339611650407
2015-10-17 21:05:11.278006,443,480.9458825890822
2015-10-17 21:05:11.278266,447,480.76836906166039
2015-10-17 21:05:11.278431,451,480.59085553423853
2015-10-17 21:05:11.294075,453,480.41334200681672
2015-10-17 21:05:11.294440,454,480.23582847939485
2015-10-17 21:05:11.294738,456,480.05831495197305
2015-10-17 21:05:11.309782,456,479.88080142455124
2015-10-17 21:05:11.309989,457,479.70328789712937
2015-10-17 21:05:11.310103,459,479.52577436970756
2015-10-17 21:05:11.325753,460,479.3482608422857
2015-10-17 21:05:11.325909,459,479.17074731486389
2015-10-17 21:05:11.326019,458,478.99323378744202
2015-10-17 21:05:11.326116,461,478.81572026002021
2015-10-17 21:05:11.341617,464,478.63820673259841
2015-10-17 21:05:11.341673,462,478.46069320517654
2015-10-17 21:05:11.341720,460,478.28317967775473
2015-10-17 21:05:11.357632,461,478.10566615033287
2015-10-17 21:05:11.357689,460,477.92815262291106
2015-10-17 21:05:11.357735,457,477.75063909548919
2015-10-17 21:05:11.373632,455,477.57312556806738
2015-10-17 21:05:11.373692,455,477.39561204064552
2015-10-17 21:05:11.373739,455,477.21809851322371
2015-10-17 21:05:11.389729,456,477.0405849858019
2015-10-17 21:05:11.389808,456,476.86307145838003
2015-10-17 21:05:11.389872,458,476.68555793095823
2015-10-17 21:05:11.405825,459,476.50804440353636
2015-10-17 21:05:11.405933,461,476.33053087611455
2015-10-17 21:05:11.406025,463,476.15301734869269
2015-10-17 21:05:11.422063,463,475.97550382127088
2015-10-17 21:05:11.422262,464,475.79799029384901
2015-10-17 21:05:11.422429,466,475.6204767664272
2015-10-17 21:05:11.437818,468,475.44296323900539
2015-10-17 21:05:11.437983,470,475.26544971158353
2015-10-17 21:05:11.438126,475,475.08793618416172
2015-10-17 21:05:11.454003,479,474.91042265673985
2015-10-17 21:05:11.454291,480,474.73290912931805
2015-10-17 21:05:11.454467,481,474.55539560189618
2015-10-17 21:05:11.470057,481,474.37788207447437
2015-10-17 21:05:11.470254,481,474.20036854705256
2015-10-17 21:05:11.470423,484,474.0228550196307
2015-10-17 21:05:11.485963,489,473.84534149220895
2015-10-17 21:05:11.486164,492,473.66782796478708
2015-10-17 21:05:11.486331,489,473.49031443736527
2015-10-17 21:05:11.501911,483,473.31280090994346
2015-10-17 21:05:11.502116,477,473.13528738252165
2015-10-17 21:05:11.502281,466,472.95777385509984
2015-10-17 21:05:11.517960,462,472.78026032767804
2015-10-17 21:05:11.518158,465,472.60274680025623
2015-10-17 21:05:11.518325,467,472.42523327283442
2015-10-17 21:05:11.533695,466,472.24771974541261
2015-10-17 21:05:11.533892,465,472.07020621799074
2015-10-17 21:05:11.533995,464,471.89269269056899
2015-10-17 21:05:11.549844,464,471.71517916314713
2015-10-17 21:05:11.550120,463,471.53766563572532
2015-10-17 21:05:11.550298,469,471.36015210830351
2015-10-17 21:05:11.565808,475,471.1826385808817
2015-10-17 21:05:11.566085,482,471.00512505345989
2015-10-17 21:05:11.566264,484,470.82761152603808
2015-10-17 21:05:11.566434,492,470.65009799861622
2015-10-17 21:05:11.582009,534,470.47258447119447
2015-10-17 21:05:11.582209,620,470.29507094377266
2015-10-17 21:05:11.582380,726,470.11755741635079
2015-10-17 21:05:11.598007,847,469.94004388892898
2015-10-17 21:05:11.598197,917,469.76253036150717
2015-10-17 21:05:11.598366,900,469.58501683408537
2015-10-17 21:05:11.613995,800,469.40750330666356
2015-10-17 21:05:11.614190,568,469.22998977924169
2015-10-17 21:05:11.614359,385,469.07576996587915
2015-10-17 21:05:11.629963,370,468.89499964012208
2015-10-17 21:05:11.630157,402,468.71422931436507
2015-10-17 21:05:11.630328,451,468.533458988608
2015-10-17 21:05:11.645963,494,468.35268866285094
2015-10-17 21:05:11.646150,508,468.34943186451574
2015-10-17 21:05:11.646312,502,468.34617506618054
2015-10-17 21:05:11.661933,499,468.34291826784533
2015-10-17 21:05:11.662128,496,468.33966146951013
2015-10-17 21:05:11.662291,493,468.33640467117493
2015-10-17 21:05:11.677906,489,468.33314787283973
2015-10-17 21:05:11.678100,495,468.32989107450453
2015-10-17 21:05:11.678271,511,468.32663427616933
2015-10-17 21:05:11.693898,526,468.32337747783413
2015-10-17 21:05:11.694092,534,468.32012067949893
2015-10-17 21:05:11.694259,540,468.31686388116373
2015-10-17 21:05:11.709910,547,468.31360708282853
2015-10-17 21:05:11.710103,555,468.31035028449327
2015-10-17 21:05:11.710273,562,468.30709348615807
2015-10-17 21:05:11.725847,564,468.30383668782287
2015-10-17 21:05:11.726046,563,468.30057988948766
2015-10-17 21:05:11.726211,565,468.29732309115246
2015-10-17 21:05:11.741474,571,468.29406629281726
2015-10-17 21:05:11.741536,581,468.29080949448206
2015-10-17 21:05:11.741581,592,468.28755269614686
2015-10-17 21:05:11.757446,601,468.28429589781166
2015-10-17 21:05:11.757510,609,468.28103909947646
2015-10-17 21:05:11.757558,616,468.27778230114126
2015-10-17 21:05:11.773418,621,468.27452550280606
2015-10-17 21:05:11.773485,626,468.2712687044708
2015-10-17 21:05:11.773532,631,468.2680119061356
2015-10-17 21:05:11.789396,635,468.2647551078004
2015-10-17 21:05:11.789471,636,468.2614983094652
2015-10-17 21:05:11.789519,639,468.25824151113
2015-10-17 21:05:11.805436,645,468.25498471279474
2015-10-17 21:05:11.805511,650,468.25172791445954
2015-10-17 21:05:11.805559,649,468.24847111612422
2015-10-17 21:05:11.805610,649,468.24521431778902
2015-10-17 21:05:11.821408,650,468.24195751945376
2015-10-17 21:05:11.821471,646,468.23870072111856
2015-10-17 21:05:11.821517,639,468.23544392278325
2015-10-17 21:05:11.837476,630,468.23218712444805
2015-10-17 21:05:11.837547,614,468.22893032611279
2015-10-17 21:05:11.837593,593,468.22567352777759
2015-10-17 21:05:11.853528,573,468.22241672944233
2015-10-17 21:05:11.853591,555,468.21915993110713
2015-10-17 21:05:11.853636,538,468.53273907288025
2015-10-17 21:05:11.870179,518,469.04380043355837
2015-10-17 21:05:11.870824,501,469.60193200652526
2015-10-17 21:05:11.870958,488,470.16006357949226
2015-10-17 21:05:11.885821,477,470.71819515245915
2015-10-17 21:05:11.886017,463,471.27632672542609
2015-10-17 21:05:11.886184,453,471.83445829839297
2015-10-17 21:05:11.901841,450,472.39258987135992
2015-10-17 21:05:11.902083,446,472.9507214443268
2015-10-17 21:05:11.902194,441,473.50885301729375
2015-10-17 21:05:11.917578,436,474.06698459026063
2015-10-17 21:05:11.917707,433,474.62511616322763
2015-10-17 21:05:11.917806,429,475.18324773619452
2015-10-17 21:05:11.933812,422,475.74137930916146
2015-10-17 21:05:11.934109,419,476.29951088212835
2015-10-17 21:05:11.934260,420,476.85764245509529
2015-10-17 21:05:11.949771,420,477.41577402806217
2015-10-17 21:05:11.949966,422,477.97390560102917
2015-10-17 21:05:11.950133,425,478.53203717399606
2015-10-17 21:05:11.965888,428,479.090168746963
2015-10-17 21:05:11.966087,429,479.64830031992989
2015-10-17 21:05:11.966258,429,480.20643189289683
2015-10-17 21:05:11.981710,430,480.76456346586372
2015-10-17 21:05:11.981912,432,481.3226950388306
2015-10-17 21:05:11.982079,432,481.88082661179749
2015-10-17 21:05:11.997437,430,482.43895818476443
2015-10-17 21:05:11.997562,429,482.99708975773132
2015-10-17 21:05:11.997659,429,483.5552213306982
2015-10-17 21:05:12.013411,430,484.11335290366509
2015-10-17 21:05:12.013537,434,484.67148447663209
2015-10-17 21:05:12.013633,440,485.22961604959897
2015-10-17 21:05:12.029426,445,485.78774762256586
2015-10-17 21:05:12.029605,449,486.3458791955328
2015-10-17 21:05:12.029782,451,486.90401076849975
2015-10-17 21:05:12.045747,456,487.46214234146663
2015-10-17 21:05:12.046047,459,488.02027391443363
2015-10-17 21:05:12.046231,458,488.57840548740057
2015-10-17 21:05:12.061449,455,489.13653706036752
2015-10-17 21:05:12.061726,454,489.69466863333446
2015-10-17 21:05:12.061898,456,490.25280020630134
2015-10-17 21:05:12.062013,454,490.81093177926834
2015-10-17 21:05:12.077820,452,491.36906335223529
2015-10-17 21:05:12.078088,453,491.92719492520223
2015-10-17 21:05:12.078286,456,492.48532649816912
2015-10-17 21:05:12.093803,460,493.04345807113611
2015-10-17 21:05:12.094008,467,493.60158964410306
2015-10-17 21:05:12.094202,470,494.15972121707
2015-10-17 21:05:12.109581,471,494.71785279003689
2015-10-17 21:05:12.109778,473,495.27598436300383
2015-10-17 21:05:12.109981,478,495.83411593597083
2015-10-17 21:05:12.125813,481,496.39224750893777
2015-10-17 21:05:12.126006,482,496.95037908190466
2015-10-17 21:05:12.126176,483,497.5085106548716
2015-10-17 21:05:12.141720,487,498.06664222783854
2015-10-17 21:05:12.141916,486,498.60148008674639
2015-10-17 21:05:12.142085,481,499.16286845804859
2015-10-17 21:05:12.157473,482,499.72425682935079
2015-10-17 21:05:12.157595,486,500.28564520065299
2015-10-17 21:05:12.157692,485,500.84703357195519
2015-10-17 21:05:12.173608,481,501.40842194325739
2015-10-17 21:05:12.173803,479,501.9698103145596
2015-10-17 21:05:12.173975,481,502.5311986858618
2015-10-17 21:05:12.189360,484,503.092587057164
2015-10-17 21:05:12.189482,483,503.6539754284662
2015-10-17 21:05:12.189579,484,504.2153637997684
2015-10-17 21:05:12.205327,486,504.7767521710706
2015-10-17 21:05:12.205434,486,505.3381405423728
2015-10-17 21:05:12.205518,484,505.899528913675
2015-10-17 21:05:12.221161,480,506.4609172849772
2015-10-17 21:05:12.221225,478,507.02230565627929
2015-10-17 21:05:12.221272,475,507.5836940275816
2015-10-17 21:05:12.237357,474,508.14508239888369
2015-10-17 21:05:12.237523,477,508.706470770186
2015-10-17 21:05:12.237573,480,509.26785914148809
2015-10-17 21:05:12.253516,479,509.82665932233931
2015-10-17 21:05:12.253727,481,510.38028312228846
2015-10-17 21:05:12.253894,487,510.93002463656103
2015-10-17 21:05:12.269386,492,511.47717796038262
2015-10-17 21:05:12.269605,489,512.02433128420432
2015-10-17 21:05:12.269776,489,512.5714846080258
2015-10-17 21:05:12.285289,494,513.11863793184739
2015-10-17 21:05:12.285481,498,513.66579125566898
2015-10-17 21:05:12.285588,498,514.21294457949057
2015-10-17 21:05:12.301445,500,514.76009790331216
2015-10-17 21:05:12.301715,500,515.30725122713375
2015-10-17 21:05:12.301892,497,515.85440455095522
2015-10-17 21:05:12.302061,489,516.40155787477681
2015-10-17 21:05:12.317529,478,516.94871119859852
2015-10-17 21:05:12.317723,472,517.49586452242011
2015-10-17 21:05:12.317887,473,518.04301784624158
2015-10-17 21:05:12.333597,474,518.59017117006317
2015-10-17 21:05:12.333790,474,519.13732449388465
2015-10-17 21:05:12.333962,475,519.68447781770635
2015-10-17 21:05:12.349554,476,520.23163114152794
2015-10-17 21:05:12.349741,476,520.77878446534953
2015-10-17 21:05:12.349906,477,521.32593778917101
2015-10-17 21:05:12.365570,477,521.8730911129926
2015-10-17 21:05:12.365763,476,522.4202444368143
2015-10-17 21:05:12.365933,479,522.96739776063589
2015-10-17 21:05:12.381326,490,523.51455108445737
2015-10-17 21:05:12.381434,495,523.74486846817047
2015-10-17 21:05:12.381526,511,523.77770363297873
2015-10-17 21:05:12.397548,565,523.76346858549812
2015-10-17 21:05:12.397743,657,523.74923353801751
2015-10-17 21:05:12.397911,770,523.7349984905369
2015-10-17 21:05:12.413379,873,523.72076344305628
2015-10-17 21:05:12.413578,901,523.70652839557567
2015-10-17 21:05:12.413745,861,523.69229334809506
2015-10-17 21:05:12.429517,719,523.67805830061445
2015-10-17 21:05:12.429715,482,523.66382325313373
2015-10-17 21:05:12.429883,371,523.5163710843965
2015-10-17 21:05:12.445376,383,523.38643565713198
2015-10-17 21:05:12.445570,408,523.25650022986747
2015-10-17 21:05:12.445738,444,523.12656480260296
2015-10-17 21:05:12.461465,477,522.99662937533844
2015-10-17 21:05:12.461667,491,522.86669394807404
2015-10-17 21:05:12.461835,489,522.73675852080953
2015-10-17 21:05:12.477322,487,522.60682309354502
2015-10-17 21:05:12.477523,492,522.4768876662805
2015-10-17 21:05:12.477695,496,522.34695223901599
2015-10-17 21:05:12.493231,498,522.21701681175148
2015-10-17 21:05:12.493360,504,522.08708138448696
2015-10-17 21:05:12.493455,516,521.95714595722245
2015-10-17 21:05:12.509320,528,521.82721052995805
2015-10-17 21:05:12.509590,533,521.69727510269354
2015-10-17 21:05:12.509761,543,521.56733967542903
2015-10-17 21:05:12.525331,555,521.43740424816451
2015-10-17 21:05:12.525600,564,521.3074688209
2015-10-17 21:05:12.525763,570,521.17753339363549
2015-10-17 21:05:12.541221,574,521.04759796637097
2015-10-17 21:05:12.541392,580,520.91766253910646
2015-10-17 21:05:12.541513,584,520.78772711184195
2015-10-17 21:05:12.557264,586,520.65779168457755
2015-10-17 21:05:12.557479,591,520.52785625731303
2015-10-17 21:05:12.557798,597,520.39792083004852
2015-10-17 21:05:12.557969,601,520.26798540278401
2015-10-17 21:05:12.573899,609,520.13804997551949
2015-10-17 21:05:12.574295,622,520.00811454825498
2015-10-17 21:05:12.574565,631,519.87817912099047
2015-10-17 21:05:12.589679,636,519.74824369372595
2015-10-17 21:05:12.589873,640,519.61830826646155
2015-10-17 21:05:12.589979,648,519.48837283919704
2015-10-17 21:05:12.605351,653,519.35843741193253
2015-10-17 21:05:12.605543,657,519.22850198466801
2015-10-17 21:05:12.605711,660,519.0985665574035
2015-10-17 21:05:12.621438,662,518.96863113013899
2015-10-17 21:05:12.621630,662,518.83869570287447
2015-10-17 21:05:12.621800,659,518.70876027560996
2015-10-17 21:05:12.637457,654,518.57882484834556
2015-10-17 21:05:12.637649,648,518.44888942108093
2015-10-17 21:05:12.637818,637,518.31895399381642
2015-10-17 21:05:12.653454,623,518.18901856655191
2015-10-17 21:05:12.653650,608,518.0590831392874
2015-10-17 21:05:12.653820,592,517.92914771202288
2015-10-17 21:05:12.669318,573,517.77721266592482
2015-10-17 21:05:12.669541,555,517.76531196898145
2015-10-17 21:05:12.669648,540,517.75262485664007
2015-10-17 21:05:12.685440,524,517.73993774429869
2015-10-17 21:05:12.685643,509,517.7272506319573
2015-10-17 21:05:12.685818,494,517.71456351961604
2015-10-17 21:05:12.701433,484,517.70187640727465
2015-10-17 21:05:12.701630,479,517.68918929493327
2015-10-17 21:05:12.701799,470,517.67650218259189
2015-10-17 21:05:12.717378,462,517.66381507025062
2015-10-17 21:05:12.717582,457,517.65112795790924
2015-10-17 21:05:12.717754,453,517.63844084556786
2015-10-17 21:05:12.733356,447,517.62575373322647
2015-10-17 21:05:12.733555,444,517.61306662088521
2015-10-17 21:05:12.733717,443,517.60037950854382
2015-10-17 21:05:12.749361,439,517.58769239620244
2015-10-17 21:05:12.749569,436,517.57500528386106
2015-10-17 21:05:12.749740,438,517.56231817151968
2015-10-17 21:05:12.765265,445,517.54963105917841
2015-10-17 21:05:12.765505,453,517.53694394683703
2015-10-17 21:05:12.765680,457,517.52684502494662
2015-10-17 21:05:12.781243,460,517.52192248395841
2015-10-17 21:05:12.781511,465,517.52088222864654
2015-10-17 21:05:12.781679,470,517.52243016378577
2015-10-17 21:05:12.797247,475,517.523978098925
2015-10-17 21:05:12.797514,480,517.52552603406423
2015-10-17 21:05:12.797683,483,517.52707396920357
2015-10-17 21:05:12.797850,482,517.5286219043428
2015-10-17 21:05:12.813433,483,517.53016983948203
2015-10-17 21:05:12.813621,488,517.53171777462137
2015-10-17 21:05:12.813785,492,517.5332657097606
2015-10-17 21:05:12.829400,493,517.53481364489983
2015-10-17 21:05:12.829591,493,517.53636158003906
2015-10-17 21:05:12.829751,496,517.53790951517828
2015-10-17 21:05:12.845407,496,517.53945745031751
2015-10-17 21:05:12.845601,495,517.54100538545674
2015-10-17 21:05:12.845768,492,517.54255332059597
2015-10-17 21:05:12.861374,491,517.5441012557352
2015-10-17 21:05:12.861570,489,517.54564919087454
2015-10-17 21:05:12.861741,487,517.54719712601377
2015-10-17 21:05:12.877372,487,517.54874506115289
2015-10-17 21:05:12.877566,490,517.55029299629211
2015-10-17 21:05:12.877732,491,517.55184093143134
2015-10-17 21:05:12.893294,489,517.55338886657046
2015-10-17 21:05:12.893487,489,517.55493680170969
2015-10-17 21:05:12.893656,492,517.55648473684892
2015-10-17 21:05:12.909344,494,517.55803267198803
2015-10-17 21:05:12.909574,496,517.55958060712737
2015-10-17 21:05:12.909742,496,517.56112854226649
2015-10-17 21:05:12.925315,498,517.56267647740572
2015-10-17 21:05:12.925510,502,517.56422441254495
2015-10-17 21:05:12.925682,504,517.56577234768417
2015-10-17 21:05:12.941319,503,517.56732028282329
2015-10-17 21:05:12.941517,507,517.56886821796252
2015-10-17 21:05:12.941683,509,517.57041615310175
2015-10-17 21:05:12.957215,509,517.57196408824097
2015-10-17 21:05:12.957418,510,517.70672914463682
2015-10-17 21:05:12.957588,511,517.82397745955996
2015-10-17 21:05:12.973264,510,517.94122577448309
2015-10-17 21:05:12.973467,512,518.0584740894061
2015-10-17 21:05:12.973633,514,518.17442830910375
2015-10-17 21:05:12.989210,517,518.29038252880127
2015-10-17 21:05:12.989410,519,518.40374855804782
2015-10-17 21:05:12.989577,520,518.51323230161768
2015-10-17 21:05:13.004933,519,518.61883375951118
2015-10-17 21:05:13.005078,517,518.72314112217919
2015-10-17 21:05:13.005178,514,518.8274484848472
2015-10-17 21:05:13.020937,512,518.93175584751521
2015-10-17 21:05:13.021054,511,519.03606321018322
2015-10-17 21:05:13.021134,511,519.14037057285123
2015-10-17 21:05:13.037151,509,519.24467793551923
2015-10-17 21:05:13.037418,509,519.34898529818724
2015-10-17 21:05:13.037590,511,519.45329266085525
2015-10-17 21:05:13.037760,510,519.55630592829766
2015-10-17 21:05:13.053318,507,519.65414281483811
2015-10-17 21:05:13.053511,499,519.74939151092758
2015-10-17 21:05:13.053680,493,519.84464020701705
2015-10-17 21:05:13.069328,483,519.93988890310641
2015-10-17 21:05:13.069520,476,520.03513759919588
2015-10-17 21:05:13.069682,477,520.13038629528535
2015-10-17 21:05:13.085364,479,520.22563499137482
2015-10-17 21:05:13.085564,479,520.32088368746417
2015-10-17 21:05:13.085734,480,520.41613238355365
2015-10-17 21:05:13.101274,483,520.51138107964312
2015-10-17 21:05:13.101468,484,520.60662977573259
2015-10-17 21:05:13.101633,482,520.70187847182194
2015-10-17 21:05:13.117273,480,520.79712716791141
2015-10-17 21:05:13.117463,479,520.89237586400088
2015-10-17 21:05:13.117632,486,520.98762456009035
2015-10-17 21:05:13.133276,495,521.08287325617982
2015-10-17 21:05:13.133471,499,521.17812195226918
2015-10-17 21:05:13.133637,525,521.27337064835865
2015-10-17 21:05:13.149312,589,521.36861934444812
2015-10-17 21:05:13.149504,670,521.46386804053748
2015-10-17 21:05:13.149674,766,521.55911673662706
2015-10-17 21:05:13.165213,842,521.65436543271642
2015-10-17 21:05:13.165408,836,521.74961412880589
2015-10-17 21:05:13.165575,779,521.84486282489524
2015-10-17 21:05:13.181223,620,521.94011152098471
2015-10-17 21:05:13.181420,419,522.05735983590785
2015-10-17 21:05:13.181584,363,522.01578786063476
2015-10-17 21:05:13.197185,392,521.85488705981493
2015-10-17 21:05:13.197389,421,521.69477267439311
2015-10-17 21:05:13.197556,456,521.53465828897129
2015-10-17 21:05:13.213183,484,521.37454390354947
2015-10-17 21:05:13.213381,496,521.21442951812764
2015-10-17 21:05:13.213545,499,521.05431513270582
2015-10-17 21:05:13.229154,497,520.89420074728389
2015-10-17 21:05:13.229355,494,520.73408636186207
2015-10-17 21:05:13.229523,491,520.57397197644025
2015-10-17 21:05:13.245151,496,520.41385759101843
2015-10-17 21:05:13.245351,507,520.25374320559661
2015-10-17 21:05:13.245519,516,520.09362882017479
2015-10-17 21:05:13.261148,526,519.93351443475296
2015-10-17 21:05:13.261470,538,519.77340004933114
2015-10-17 21:05:13.261649,547,519.61328566390932
2015-10-17 21:05:13.277079,553,519.4531712784875
2015-10-17 21:05:13.277348,555,519.29305689306568
2015-10-17 21:05:13.277524,555,519.13294250764375
2015-10-17 21:05:13.293056,554,518.97282812222193
2015-10-17 21:05:13.293324,549,518.81271373680011
2015-10-17 21:05:13.293496,548,518.65259935137829
2015-10-17 21:05:13.293661,549,518.49248496595646
2015-10-17 21:05:13.309230,552,518.33237058053464
2015-10-17 21:05:13.309419,557,518.17225619511271
2015-10-17 21:05:13.309587,566,518.01214180969089
2015-10-17 21:05:13.325194,577,517.85202742426907
2015-10-17 21:05:13.325387,587,517.69191303884725
2015-10-17 21:05:13.325554,595,517.53179865342543
2015-10-17 21:05:13.341195,602,517.37168426800349
2015-10-17 21:05:13.341389,611,517.21156988258167
2015-10-17 21:05:13.341556,617,517.05145549715985
2015-10-17 21:05:13.357169,625,516.89134111173792
2015-10-17 21:05:13.357360,632,516.73122672631609
2015-10-17 21:05:13.357524,632,516.57111234089439
2015-10-17 21:05:13.372849,631,516.41099795547257
2015-10-17 21:05:13.372971,629,516.25088357005063
2015-10-17 21:05:13.373068,629,516.09076918462881
2015-10-17 21:05:13.389175,626,515.93065479920699
2015-10-17 21:05:13.389368,622,515.77054041378528
2015-10-17 21:05:13.389533,613,515.61042602836346
2015-10-17 21:05:13.404878,601,515.45031164294176
2015-10-17 21:05:13.405002,583,515.29019725751982
2015-10-17 21:05:13.405101,562,515.13008287209811
2015-10-17 21:05:13.421143,545,514.96996848667629
2015-10-17 21:05:13.421340,530,514.80985410125459
2015-10-17 21:05:13.421513,514,514.64973971583277
2015-10-17 21:05:13.437097,498,514.48962533041106
2015-10-17 21:05:13.437293,488,514.32951094498924
2015-10-17 21:05:13.437460,480,514.16939655956753
2015-10-17 21:05:13.453065,472,514.00928217414571
2015-10-17 21:05:13.453271,464,513.84916778872389
2015-10-17 21:05:13.453441,459,513.68905340330218
2015-10-17 21:05:13.469068,455,513.52893901788036
2015-10-17 21:05:13.469270,449,513.36882463245865
2015-10-17 21:05:13.469441,448,513.20871024703683
2015-10-17 21:05:13.485066,450,513.14844524257921
2015-10-17 21:05:13.485269,448,513.18509467686408
2015-10-17 21:05:13.485437,442,513.24381174618247
2015-10-17 21:05:13.500977,437,513.30252881550098
2015-10-17 21:05:13.501246,439,513.36253998004486
2015-10-17 21:05:13.501421,441,513.42255114458885
2015-10-17 21:05:13.516973,443,513.48515049958382
2015-10-17 21:05:13.517242,447,513.55163214025526
2015-10-17 21:05:13.517414,453,513.62199606660329
2015-10-17 21:05:13.532979,457,513.69365408817691
2015-10-17 21:05:13.533246,460,513.76531210975043
2015-10-17 21:05:13.533415,463,513.83697013132394
2015-10-17 21:05:13.533581,467,513.90862815289745
2015-10-17 21:05:13.549150,468,513.98028617447096
2015-10-17 21:05:13.549345,465,514.05194419604459
2015-10-17 21:05:13.549510,464,514.12360221761799
2015-10-17 21:05:13.565152,464,514.1952602391915
2015-10-17 21:05:13.565343,466,514.26821235599061
2015-10-17 21:05:13.565512,469,514.34634085369157
2015-10-17 21:05:13.581145,471,514.42705754184374
2015-10-17 21:05:13.581337,471,514.50777422999579
2015-10-17 21:05:13.581502,468,514.58849091814784
2015-10-17 21:05:13.597120,467,514.66920760629989
2015-10-17 21:05:13.597313,468,514.74992429445206
2015-10-17 21:05:13.597479,468,514.83064098260411
2015-10-17 21:05:13.613128,468,514.91135767075616
2015-10-17 21:05:13.613312,467,514.99207435890821
2015-10-17 21:05:13.613473,470,515.07279104706038
2015-10-17 21:05:13.629050,472,515.15350773521243
2015-10-17 21:05:13.629243,471,515.23422442336448
2015-10-17 21:05:13.629410,471,515.31494111151653
2015-10-17 21:05:13.645019,472,515.3956577996687
2015-10-17 21:05:13.645210,472,515.47637448782075
2015-10-17 21:05:13.645375,471,515.55709117597291
2015-10-17 21:05:13.661022,472,515.63780786412497
2015-10-17 21:05:13.661220,475,515.71852455227702
2015-10-17 21:05:13.661388,475,515.79924124042907
2015-10-17 21:05:13.677024,474,515.87995792858112
2015-10-17 21:05:13.677215,478,515.96067461673317
2015-10-17 21:05:13.677381,482,516.04139130488522
2015-10-17 21:05:13.692937,486,516.12210799303728
2015-10-17 21:05:13.693146,488,516.20282468118933
2015-10-17 21:05:13.693313,488,516.28354136934138
2015-10-17 21:05:13.708962,490,516.34225843865977
2015-10-17 21:05:13.709166,493,516.58179541700804
2015-10-17 21:05:13.709335,497,516.80062687174825
2015-10-17 21:05:13.724954,501,517.01945832648846
2015-10-17 21:05:13.725158,505,517.23828978122856
2015-10-17 21:05:13.725324,503,517.45712123596877
2015-10-17 21:05:13.740873,503,517.67595269070887
2015-10-17 21:05:13.741140,505,517.89478414544908
2015-10-17 21:05:13.741312,505,518.11361560018929
2015-10-17 21:05:13.756691,502,518.3324470549295
2015-10-17 21:05:13.756838,503,518.5512785096696
2015-10-17 21:05:13.756938,504,518.77010996440981
2015-10-17 21:05:13.772848,500,518.98894141914991
2015-10-17 21:05:13.773113,496,519.20777287389012
2015-10-17 21:05:13.773285,498,519.42660432863033
2015-10-17 21:05:13.773449,500,519.64543578337054
2015-10-17 21:05:13.788717,500,519.86426723811064
2015-10-17 21:05:13.788841,498,520.08309869285085
2015-10-17 21:05:13.788939,501,520.30193014759107
2015-10-17 21:05:13.805038,502,520.52076160233128
2015-10-17 21:05:13.805233,497,520.73959305707137
2015-10-17 21:05:13.805405,489,520.95842451181159
2015-10-17 21:05:13.821059,479,521.17725596655168
2015-10-17 21:05:13.821237,473,521.3960874212919
2015-10-17 21:05:13.821343,470,521.61491887603211
2015-10-17 21:05:13.836976,471,521.83375033077232
2015-10-17 21:05:13.837167,477,522.05258178551242
2015-10-17 21:05:13.837333,480,522.27141324025263
2015-10-17 21:05:13.852975,479,522.49024469499284
2015-10-17 21:05:13.853171,477,522.70907614973294
2015-10-17 21:05:13.853337,479,522.92790760447315
2015-10-17 21:05:13.868945,479,523.14673905921336
2015-10-17 21:05:13.869137,478,523.36557051395357
2015-10-17 21:05:13.869308,485,523.58440196869367
2015-10-17 21:05:13.884885,497,523.80323342343388
2015-10-17 21:05:13.885074,501,524.02206487817398
2015-10-17 21:05:13.885242,525,524.24089633291419
2015-10-17 21:05:13.900873,593,524.4597277876544
2015-10-17 21:05:13.901069,684,524.67855924239461
2015-10-17 21:05:13.901234,789,524.89739069713471
2015-10-17 21:05:13.916873,867,525.11622215187492
2015-10-17 21:05:13.917068,860,525.33505360661513
2015-10-17 21:05:13.917235,802,525.55388506135534
2015-10-17 21:05:13.932889,628,525.77271651609544
2015-10-17 21:05:13.933088,415,525.98517040656498
2015-10-17 21:05:13.933253,356,525.87485045628284
2015-10-17 21:05:13.948851,385,525.77860462542458
2015-10-17 21:05:13.949055,414,525.68235879456631
2015-10-17 21:05:13.949223,452,525.58611296370793
2015-10-17 21:05:13.964702,482,525.48986713284978
2015-10-17 21:05:13.964902,494,525.3936213019914
2015-10-17 21:05:13.965167,491,525.29737547113314
2015-10-17 21:05:13.980834,487,525.20112964027487
2015-10-17 21:05:13.981035,487,525.10488380941649
2015-10-17 21:05:13.981207,491,525.00863797855834
2015-10-17 21:05:13.996739,499,524.91239214769996
2015-10-17 21:05:13.997013,511,524.8161463168417
2015-10-17 21:05:13.997185,523,524.62005110501923
2015-10-17 21:05:14.012738,532,524.32704145445439
2015-10-17 21:05:14.013006,540,524.01196416885591
2015-10-17 21:05:14.013176,549,523.69688688325755
2015-10-17 21:05:14.028734,558,523.38180959765907
2015-10-17 21:05:14.029011,563,523.06673231206059
2015-10-17 21:05:14.029185,564,522.75165502646212
2015-10-17 21:05:14.029351,566,522.43657774086364
2015-10-17 21:05:14.044891,571,522.12150045526528
2015-10-17 21:05:14.045085,573,521.8064231696668
2015-10-17 21:05:14.045250,576,521.49134588406832
2015-10-17 21:05:14.060886,583,521.17626859846985
2015-10-17 21:05:14.061076,595,520.86119131287137
2015-10-17 21:05:14.061242,603,520.54611402727301
2015-10-17 21:05:14.076868,610,520.23103674167453
2015-10-17 21:05:14.077066,620,519.91595945607605
2015-10-17 21:05:14.077234,626,519.60088217047758
2015-10-17 21:05:14.092851,630,519.2858048848791
2015-10-17 21:05:14.093047,634,518.97072759928074
2015-10-17 21:05:14.093221,640,518.65565031368226
2015-10-17 21:05:14.108805,645,518.34057302808378
2015-10-17 21:05:14.108998,649,518.0254957424853
2015-10-17 21:05:14.109162,653,517.71041845688683
2015-10-17 21:05:14.124827,655,517.39534117128846
2015-10-17 21:05:14.125021,653,517.08026388568999
2015-10-17 21:05:14.125195,648,516.76518660009151
2015-10-17 21:05:14.140816,643,516.45010931449303
2015-10-17 21:05:14.141016,638,516.13503202889467
2015-10-17 21:05:14.141188,627,515.81995474329619
2015-10-17 21:05:14.156922,614,515.50487745769772
2015-10-17 21:05:14.157125,600,515.18980017209924
2015-10-17 21:05:14.157298,583,514.87472288650076
2015-10-17 21:05:14.172788,561,514.55964560090229
2015-10-17 21:05:14.173027,541,514.2445683153037
2015-10-17 21:05:14.173134,524,513.92949102970533
2015-10-17 21:05:14.188757,506,513.61441374410674
2015-10-17 21:05:14.188960,492,513.29933645850826
2015-10-17 21:05:14.189127,482,512.98425917290979
2015-10-17 21:05:14.204743,478,512.6691818873112
2015-10-17 21:05:14.204945,472,512.35410460171283
2015-10-17 21:05:14.205115,463,512.03902731611424
2015-10-17 21:05:14.220728,457,511.72395003051577
2015-10-17 21:05:14.220932,452,511.40887274491729
2015-10-17 21:05:14.221099,449,511.09379545931881
2015-10-17 21:05:14.236650,445,510.94997173634431
2015-10-17 21:05:14.236880,438,510.85416556911343
2015-10-17 21:05:14.237046,434,510.75835940188256
2015-10-17 21:05:14.252636,432,510.66255323465168
2015-10-17 21:05:14.252906,428,510.56674706742081
2015-10-17 21:05:14.253076,425,510.47094090018993
2015-10-17 21:05:14.268626,423,510.37513473295905
2015-10-17 21:05:14.268860,423,510.27932856572818
2015-10-17 21:05:14.269031,427,510.1835223984973
2015-10-17 21:05:14.269195,430,510.08771623126631
2015-10-17 21:05:14.284790,431,509.99191006403555
2015-10-17 21:05:14.284982,429,509.89610389680456
2015-10-17 21:05:14.285146,429,509.8002977295738
2015-10-17 21:05:14.300787,430,509.70449156234281
2015-10-17 21:05:14.300982,432,509.60868539511205
2015-10-17 21:05:14.301153,431,509.51287922788117
2015-10-17 21:05:14.316802,429,509.4170730606503
2015-10-17 21:05:14.316997,430,509.32126689341953
2015-10-17 21:05:14.317172,431,509.22546072618866
2015-10-17 21:05:14.332735,431,509.12965455895778
2015-10-17 21:05:14.332984,432,509.03384839172702
2015-10-17 21:05:14.333157,436,508.93804222449614
2015-10-17 21:05:14.348733,441,508.84223605726527
2015-10-17 21:05:14.348924,438,508.74642989003451
2015-10-17 21:05:14.349087,435,508.65062372280363
2015-10-17 21:05:14.364795,438,508.55481755557275
2015-10-17 21:05:14.364985,439,508.45901138834199
2015-10-17 21:05:14.365144,441,508.36320522111112
2015-10-17 21:05:14.380710,444,508.26739905388024
2015-10-17 21:05:14.380906,447,508.17159288664936
2015-10-17 21:05:14.381075,448,508.0757867194186
2015-10-17 21:05:14.396691,446,507.97998055218773
2015-10-17 21:05:14.396883,448,507.88417438495685
2015-10-17 21:05:14.397050,450,507.78836821772609
2015-10-17 21:05:14.412686,450,507.69256205049521
2015-10-17 21:05:14.412882,450,507.59675588326434
2015-10-17 21:05:14.413054,451,507.50094971603357
2015-10-17 21:05:14.428660,450,507.4051435488027
2015-10-17 21:05:14.428864,448,507.30933738157194
2015-10-17 21:05:14.429028,448,507.21353121434117
2015-10-17 21:05:14.444721,450,507.11772504711041
2015-10-17 21:05:14.444927,453,507.02191887987965
2015-10-17 21:05:14.445097,454,506.92611271264889
2015-10-17 21:05:14.460624,454,506.8366841096888
2015-10-17 21:05:14.460826,457,507.07002934748016
2015-10-17 21:05:14.460991,456,507.28930046584787
2015-10-17 21:05:14.476542,455,507.50857158421559
2015-10-17 21:05:14.476781,457,507.7278427025833
2015-10-17 21:05:14.476953,459,507.9471138209509
2015-10-17 21:05:14.492437,457,508.16638493931862
2015-10-17 21:05:14.492652,456,508.38565605768633
2015-10-17 21:05:14.492823,458,508.60492717605405
2015-10-17 21:05:14.508545,463,508.82419829442165
2015-10-17 21:05:14.508814,462,509.04346941278936
2015-10-17 21:05:14.508986,459,509.26274053115708
2015-10-17 21:05:14.509154,457,509.48201164952479
2015-10-17 21:05:14.524517,457,509.70128276789239
2015-10-17 21:05:14.524639,459,509.92055388626011
2015-10-17 21:05:14.524738,459,510.13982500462782
2015-10-17 21:05:14.540684,463,510.35909612299554
2015-10-17 21:05:14.540875,462,510.57836724136325
2015-10-17 21:05:14.541046,459,510.79763835973085
2015-10-17 21:05:14.556685,457,511.01690947809857
2015-10-17 21:05:14.556878,460,511.23618059646628
2015-10-17 21:05:14.557041,461,511.455451714834
2015-10-17 21:05:14.572663,462,511.6747228332016
2015-10-17 21:05:14.572853,464,511.89399395156931
2015-10-17 21:05:14.573019,461,512.11326506993703
2015-10-17 21:05:14.588719,455,512.33253618830474
2015-10-17 21:05:14.588914,446,512.55180730667234
2015-10-17 21:05:14.589178,437,512.77107842503995
2015-10-17 21:05:14.604639,434,512.99034954340766
2015-10-17 21:05:14.604832,434,513.20962066177538
2015-10-17 21:05:14.604999,435,513.42889178014298
2015-10-17 21:05:14.620642,438,513.64816289851069
2015-10-17 21:05:14.620837,442,513.86743401687841
2015-10-17 21:05:14.621005,442,514.08670513524601
2015-10-17 21:05:14.636585,441,514.30597625361372
2015-10-17 21:05:14.636781,442,514.52524737198132
2015-10-17 21:05:14.636952,447,514.74451849034904
2015-10-17 21:05:14.652587,448,514.96378960871675
2015-10-17 21:05:14.652782,453,515.18306072708435
2015-10-17 21:05:14.652950,457,515.40233184545207
2015-10-17 21:05:14.668461,473,515.62160296381967
2015-10-17 21:05:14.668664,520,515.84087408218738
2015-10-17 21:05:14.668835,609,516.06014520055498
2015-10-17 21:05:14.684386,713,516.2794163189227
2015-10-17 21:05:14.684589,828,516.4986874372903
2015-10-17 21:05:14.684754,882,516.71795855565802
2015-10-17 21:05:14.700524,853,516.93722967402573
2015-10-17 21:05:14.700726,741,517.15650079239333
2015-10-17 21:05:14.700897,505,517.37577191076105
2015-10-17 21:05:14.716497,343,517.22596049582944
2015-10-17 21:05:14.716698,336,516.90612159729949
2015-10-17 21:05:14.716864,371,516.60440003192673
2015-10-17 21:05:14.732414,416,516.30267846655386
2015-10-17 21:05:14.732685,450,516.00095690118098
2015-10-17 21:05:14.732849,464,515.69923533580823
2015-10-17 21:05:14.748411,468,515.39751377043547
2015-10-17 21:05:14.748680,468,515.09579220506259
2015-10-17 21:05:14.748854,463,514.62281707706586
2015-10-17 21:05:14.764412,462,514.10182439332539
2015-10-17 21:05:14.764679,467,513.58083170958491
2015-10-17 21:05:14.764851,477,513.05983902584433
2015-10-17 21:05:14.765015,487,512.53884634210385
2015-10-17 21:05:14.780242,499,512.01785365836338
2015-10-17 21:05:14.780364,508,511.4968609746229
2015-10-17 21:05:14.780461,516,510.97586829088243
2015-10-17 21:05:14.796620,525,510.45487560714196
2015-10-17 21:05:14.796817,537,509.93388292340148
2015-10-17 21:05:14.796980,545,509.41289023966101
2015-10-17 21:05:14.812565,549,508.89189755592054
2015-10-17 21:05:14.812759,552,508.37090487218006
2015-10-17 21:05:14.812926,559,507.84991218843959
2015-10-17 21:05:14.828538,567,507.32891950469912
2015-10-17 21:05:14.828735,573,506.80792682095864
2015-10-17 21:05:14.828901,583,506.28693413721817
2015-10-17 21:05:14.844481,594,505.76594145347769
2015-10-17 21:05:14.844673,604,505.24494876973722
2015-10-17 21:05:14.844843,609,504.72395608599675
2015-10-17 21:05:14.860565,613,504.20296340225627
2015-10-17 21:05:14.860759,621,503.6819707185158
2015-10-17 21:05:14.860922,631,503.16097803477533
2015-10-17 21:05:14.876339,638,502.63998535103485
2015-10-17 21:05:14.876533,641,502.11899266729438
2015-10-17 21:05:14.876699,644,501.5979999835539
2015-10-17 21:05:14.892486,644,501.07700729981343
2015-10-17 21:05:14.892680,646,500.55601461607296
2015-10-17 21:05:14.892848,650,500.03502193233237
2015-10-17 21:05:14.908191,653,499.5140292485919
2015-10-17 21:05:14.908316,651,498.99303656485142
2015-10-17 21:05:14.908414,645,498.47204388111095
2015-10-17 21:05:14.924531,638,497.95105119737042
2015-10-17 21:05:14.924800,630,497.43005851362989
2015-10-17 21:05:14.924973,617,496.90906582988936
2015-10-17 21:05:14.940488,601,496.38807314614871
2015-10-17 21:05:14.940717,580,495.86708046240818
2015-10-17 21:05:14.940826,559,495.3460877786676
2015-10-17 21:05:14.956433,539,494.82509509492706
2015-10-17 21:05:14.956637,522,494.30410241118653
2015-10-17 21:05:14.956805,506,493.78310972744595
2015-10-17 21:05:14.972327,490,493.26211704370542
2015-10-17 21:05:14.972587,476,492.74112435996483
2015-10-17 21:05:14.972754,468,492.2201316762243
2015-10-17 21:05:14.988324,462,491.71464323953285
2015-10-17 21:05:14.988592,456,491.17162604130169
2015-10-17 21:05:14.988763,450,490.62602065261945
2015-10-17 21:05:15.004141,444,490.0804152639372
2015-10-17 21:05:15.004485,441,489.53480987525501
2015-10-17 21:05:15.004599,439,488.98920448657276
2015-10-17 21:05:15.004697,433,488.44359909789051
2015-10-17 21:05:15.020487,427,487.89799370920827
2015-10-17 21:05:15.020685,424,487.35238832052607
2015-10-17 21:05:15.020858,421,486.80678293184383
2015-10-17 21:05:15.036519,417,486.26117754316152
2015-10-17 21:05:15.036707,417,485.71557215447928
2015-10-17 21:05:15.036813,421,485.16996676579703
2015-10-17 21:05:15.052537,424,484.62436137711478
2015-10-17 21:05:15.052743,428,484.07875598843259
2015-10-17 21:05:15.052849,429,483.53315059975034
2015-10-17 21:05:15.068235,425,482.9875452110681
2015-10-17 21:05:15.068359,422,482.44193982238585
2015-10-17 21:05:15.068458,420,481.89633443370366
2015-10-17 21:05:15.084036,422,481.35072904502141
2015-10-17 21:05:15.084098,425,480.80512365633916
2015-10-17 21:05:15.084145,424,480.25951826765692
2015-10-17 21:05:15.100020,423,479.71391287897472
2015-10-17 21:05:15.100080,426,479.16830749029248
2015-10-17 21:05:15.100176,428,478.62270210161023
2015-10-17 21:05:15.115999,430,478.07709671292798
2015-10-17 21:05:15.116061,436,477.53149132424579
2015-10-17 21:05:15.116107,440,476.98588593556354
2015-10-17 21:05:15.132052,440,476.44028054688124
2015-10-17 21:05:15.132111,438,475.89467515819899
2015-10-17 21:05:15.132157,440,475.34906976951675
2015-10-17 21:05:15.148153,447,474.8034643808345
2015-10-17 21:05:15.148263,451,474.25785899215236
2015-10-17 21:05:15.148358,452,473.71225360347012
2015-10-17 21:05:15.164330,456,473.16664821478787
2015-10-17 21:05:15.164536,458,472.62104282610574
2015-10-17 21:05:15.164712,460,472.07543743742349
2015-10-17 21:05:15.180017,462,471.52983204874135
2015-10-17 21:05:15.180119,467,470.98422666005911
2015-10-17 21:05:15.180200,470,470.43862127137697
2015-10-17 21:05:15.196247,470,469.89301588269473
2015-10-17 21:05:15.196449,473,469.34741049401254
2015-10-17 21:05:15.196624,476,468.80180510533035
2015-10-17 21:05:15.212164,476,468.25619971664815
2015-10-17 21:05:15.212361,475,467.71059432796591
2015-10-17 21:05:15.212532,476,467.16498893928377
2015-10-17 21:05:15.228213,477,466.61938355060153
2015-10-17 21:05:15.228569,474,466.07377816191939
2015-10-17 21:05:15.228747,469,465.89725530653652
2015-10-17 21:05:15.244177,468,465.89075993475194
2015-10-17 21:05:15.244441,468,465.86614722981034
2015-10-17 21:05:15.244609,468,465.84153452486868
2015-10-17 21:05:15.260205,466,465.81692181992707
2015-10-17 21:05:15.260443,467,465.79230911498536
2015-10-17 21:05:15.260614,468,465.76769641004375
2015-10-17 21:05:15.260779,466,465.74308370510209
2015-10-17 21:05:15.275924,464,465.71847100016049
2015-10-17 21:05:15.275987,464,465.69385829521877
2015-10-17 21:05:15.276034,464,465.66924559027717
2015-10-17 21:05:15.291888,462,465.64463288533551
2015-10-17 21:05:15.291948,460,465.62002018039391
2015-10-17 21:05:15.291996,461,465.59540747545219
2015-10-17 21:05:15.307892,461,465.57079477051059
2015-10-17 21:05:15.307949,460,465.54618206556893
2015-10-17 21:05:15.307996,460,465.52156936062727
2015-10-17 21:05:15.323998,460,465.49695665568561
2015-10-17 21:05:15.324104,460,465.472343950744
2015-10-17 21:05:15.324187,460,465.44773124580234
2015-10-17 21:05:15.340168,462,465.42311854086068
2015-10-17 21:05:15.340361,465,465.39850583591908
2015-10-17 21:05:15.340526,466,465.37389313097748
2015-10-17 21:05:15.356303,463,465.34928042603582
2015-10-17 21:05:15.356500,464,465.32466772109422
2015-10-17 21:05:15.356671,467,465.30005501615261
2015-10-17 21:05:15.372011,467,465.27544231121095
2015-10-17 21:05:15.372133,467,465.25082960626929
2015-10-17 21:05:15.372231,471,465.22621690132769
2015-10-17 21:05:15.388288,475,465.20160419638609
2015-10-17 21:05:15.388482,478,465.17699149144448
2015-10-17 21:05:15.388651,480,465.15237878650277
2015-10-17 21:05:15.404277,484,465.12776608156116
2015-10-17 21:05:15.404528,489,465.10315337661956
2015-10-17 21:05:15.404632,494,465.0785406716779
2015-10-17 21:05:15.420299,494,465.0539279667363
2015-10-17 21:05:15.420510,497,465.02931526179464
2015-10-17 21:05:15.420687,498,465.00470255685303
2015-10-17 21:05:15.436199,497,464.98008985191137
2015-10-17 21:05:15.436400,496,464.95547714696977
2015-10-17 21:05:15.436566,503,464.93086444202805
2015-10-17 21:05:15.452235,508,464.90625173708645
2015-10-17 21:05:15.452436,508,464.88163903214485
2015-10-17 21:05:15.452607,507,464.85702632720319
2015-10-17 21:05:15.468134,509,464.83241362226158
2015-10-17 21:05:15.468401,510,464.80780091731992
2015-10-17 21:05:15.468574,504,464.78318821237826
2015-10-17 21:05:15.484107,497,464.75857550743666
2015-10-17 21:05:15.484378,490,464.733962802495
2015-10-17 21:05:15.484554,483,464.70935009755334
2015-10-17 21:05:15.499960,479,464.68473739261174
2015-10-17 21:05:15.500171,478,464.66012468767008
2015-10-17 21:05:15.500336,481,464.62000773567928
2015-10-17 21:05:15.500497,483,464.6174195452283
2015-10-17 21:05:15.516281,484,464.6174195452283
2015-10-17 21:05:15.516474,485,464.6174195452283
2015-10-17 21:05:15.516639,488,464.6174195452283
2015-10-17 21:05:15.532259,485,464.6174195452283
2015-10-17 21:05:15.532453,485,464.6174195452283
2015-10-17 21:05:15.532619,490,464.6174195452283
2015-10-17 21:05:15.548264,498,464.6174195452283
2015-10-17 21:05:15.548457,499,464.6174195452283
2015-10-17 21:05:15.548621,521,464.6174195452283
2015-10-17 21:05:15.564233,586,464.6174195452283
2015-10-17 21:05:15.564428,682,464.6174195452283
2015-10-17 21:05:15.564597,800,464.6174195452283
2015-10-17 21:05:15.580243,902,464.6174195452283
2015-10-17 21:05:15.580437,926,464.6174195452283
2015-10-17 21:05:15.580603,877,464.6174195452283
2015-10-17 21:05:15.596216,707,464.6174195452283
2015-10-17 21:05:15.596413,460,464.6174195452283
2015-10-17 21:05:15.596582,363,464.65772232093286
2015-10-17 21:05:15.612193,378,464.69802509663742
2015-10-17 21:05:15.612385,415,464.73832787234193
2015-10-17 21:05:15.612549,461,464.77863064804649
2015-10-17 21:05:15.628185,492,464.81893342375105
2015-10-17 21:05:15.628376,498,464.85923619945561
2015-10-17 21:05:15.628541,491,464.89953897516017
2015-10-17 21:05:15.644159,486,464.93984175086467
2015-10-17 21:05:15.644353,484,464.98014452656923
2015-10-17 21:05:15.644519,481,465.02044730227379
2015-10-17 21:05:15.660101,483,465.06075007797835
2015-10-17 21:05:15.660306,494,465.10105285368292
2015-10-17 21:05:15.660475,509,465.14135562938742
2015-10-17 21:05:15.676096,519,465.18165840509198
2015-10-17 21:05:15.676306,527,465.22196118079654
2015-10-17 21:05:15.676477,537,465.2622639565011
2015-10-17 21:05:15.692085,548,465.30256673220566
2015-10-17 21:05:15.692283,556,465.34286950791017
2015-10-17 21:05:15.692451,562,465.38317228361473
2015-10-17 21:05:15.708026,568,465.42347505931929
2015-10-17 21:05:15.708266,573,465.46377783502385
2015-10-17 21:05:15.708439,579,465.50408061072841
2015-10-17 21:05:15.723790,587,465.54438338643291
2015-10-17 21:05:15.723907,597,465.58468616213747
2015-10-17 21:05:15.723988,608,465.62498893784203
2015-10-17 21:05:15.740017,615,465.66529171354659
2015-10-17 21:05:15.740287,622,465.70559448925115
2015-10-17 21:05:15.740459,627,465.74589726495566
2015-10-17 21:05:15.740622,628,465.78620004066022
2015-10-17 21:05:15.756195,627,466.00267891997709
2015-10-17 21:05:15.756394,629,466.3842876375611
2015-10-17 21:05:15.756563,633,466.90609163235672
2015-10-17 21:05:15.772174,636,467.42660153192685
2015-10-17 21:05:15.772365,639,467.94711143149698
2015-10-17 21:05:15.772534,644,468.46762133106711
2015-10-17 21:05:15.788116,649,468.98813123063729
2015-10-17 21:05:15.788288,650,469.50864113020737
2015-10-17 21:05:15.788395,650,470.02915102977755
2015-10-17 21:05:15.804100,650,470.54966092934762
2015-10-17 21:05:15.804298,645,471.07017082891781
2015-10-17 21:05:15.804465,638,471.59068072848788
2015-10-17 21:05:15.820105,625,472.11119062805807
2015-10-17 21:05:15.820301,612,472.63170052762814
2015-10-17 21:05:15.820469,595,473.15221042719833
2015-10-17 21:05:15.836145,576,473.67272032676846
2015-10-17 21:05:15.836341,556,474.19323022633858
2015-10-17 21:05:15.836511,536,474.71374012590871
2015-10-17 21:05:15.852045,517,475.2342500254789
2015-10-17 21:05:15.852332,499,475.75475992504897
2015-10-17 21:05:15.852509,487,476.27526982461916
2015-10-17 21:05:15.868046,477,476.79577972418923
2015-10-17 21:05:15.868243,468,477.31628962375942
2015-10-17 21:05:15.868406,460,477.83679952332949
2015-10-17 21:05:15.884058,453,478.35730942289968
2015-10-17 21:05:15.884253,446,478.87781932246975
2015-10-17 21:05:15.884418,441,479.39832922203993
2015-10-17 21:05:15.899991,440,479.91883912161006
2015-10-17 21:05:15.900191,440,480.43934902118019
2015-10-17 21:05:15.900363,437,480.95985892075032
2015-10-17 21:05:15.915996,433,481.48036882032045
2015-10-17 21:05:15.916197,431,482.00087871989058
2015-10-17 21:05:15.916365,430,482.52138861946065
2015-10-17 21:05:15.931992,431,483.04189851903078
2015-10-17 21:05:15.932198,432,483.56240841860085
2015-10-17 21:05:15.932367,435,484.08291831817098
2015-10-17 21:05:15.948050,440,484.60342821774105
2015-10-17 21:05:15.948306,443,485.12393811731107
2015-10-17 21:05:15.948485,440,485.6444480168812
2015-10-17 21:05:15.964051,437,486.16495791645127
2015-10-17 21:05:15.964275,437,486.6854678160214
2015-10-17 21:05:15.964448,436,487.20597771559142
2015-10-17 21:05:15.979889,432,487.72648761516149
2015-10-17 21:05:15.980153,434,488.24699751473162
2015-10-17 21:05:15.980318,438,488.76750741430169
2015-10-17 21:05:15.995897,439,489.28801731387171
2015-10-17 21:05:15.996161,440,489.80852721344183
2015-10-17 21:05:15.996331,447,490.32903711301191
2015-10-17 21:05:15.996496,452,490.84954701258204
2015-10-17 21:05:16.012035,454,491.37005691215205
2015-10-17 21:05:16.012232,456,491.89056681172212
2015-10-17 21:05:16.012405,459,492.41107671129225
2015-10-17 21:05:16.028023,462,492.93158661086233
2015-10-17 21:05:16.028223,462,493.45209651043234
2015-10-17 21:05:16.028389,462,493.97260641000247
2015-10-17 21:05:16.043813,468,494.49311630957254
2015-10-17 21:05:16.043979,473,495.01362620914267
2015-10-17 21:05:16.044124,474,495.53413610871269
2015-10-17 21:05:16.059966,476,496.05464600828276
2015-10-17 21:05:16.060157,481,496.57515590785289
2015-10-17 21:05:16.060330,484,497.09566580742296
2015-10-17 21:05:16.075586,483,497.61617570699298
2015-10-17 21:05:16.075687,484,498.13668560656311
2015-10-17 21:05:16.075767,484,498.65331322045665
2015-10-17 21:05:16.091915,482,499.1699408343502
2015-10-17 21:05:16.092109,480,499.68656844824375
2015-10-17 21:05:16.092278,480,500.20319606213729
2015-10-17 21:05:16.107683,479,500.71982367603096
2015-10-17 21:05:16.107988,477,501.2364512899245
2015-10-17 21:05:16.108151,476,501.75307890381805
2015-10-17 21:05:16.123936,477,502.2671183272605
2015-10-17 21:05:16.124130,477,502.73956087977297
2015-10-17 21:05:16.124295,476,503.21200343228543
2015-10-17 21:05:16.139926,478,503.684445984798
2015-10-17 21:05:16.140121,479,504.15300625163388
2015-10-17 21:05:16.140287,481,504.61897832801878
2015-10-17 21:05:16.155869,482,505.08236221395271
2015-10-17 21:05:16.156074,481,505.54574609988663
2015-10-17 21:05:16.156243,482,506.00912998582055
2015-10-17 21:05:16.171866,480,506.47251387175447
2015-10-17 21:05:16.172066,476,506.93589775768828
2015-10-17 21:05:16.172235,475,507.39928164362232
2015-10-17 21:05:16.187855,476,507.86266552955612
2015-10-17 21:05:16.188055,476,508.32604941549005
2015-10-17 21:05:16.188224,473,508.78943330142408
2015-10-17 21:05:16.203779,468,509.25281718735789
2015-10-17 21:05:16.204048,467,509.71620107329181
2015-10-17 21:05:16.204220,471,510.17958495922585
2015-10-17 21:05:16.219736,470,510.64296884515966
2015-10-17 21:05:16.219999,470,511.10635273109358
2015-10-17 21:05:16.220163,474,511.5697366170275
2015-10-17 21:05:16.235752,474,512.03312050296142
2015-10-17 21:05:16.236021,473,512.49650438889535
2015-10-17 21:05:16.236193,476,512.95988827482927
2015-10-17 21:05:16.236360,479,513.42327216076319
2015-10-17 21:05:16.251923,480,513.88665604669711
2015-10-17 21:05:16.252119,482,514.35003993263103
2015-10-17 21:05:16.252284,485,514.81342381856496
2015-10-17 21:05:16.267918,488,515.27680770449888
2015-10-17 21:05:16.268111,493,515.7401915904328
2015-10-17 21:05:16.268278,497,516.02739937275442
2015-10-17 21:05:16.283905,497,516.14947731680888
2015-10-17 21:05:16.284095,499,516.13135998365181
2015-10-17 21:05:16.284261,501,516.1145367457201
2015-10-17 21:05:16.299881,503,516.09771350778851
2015-10-17 21:05:16.300071,505,516.08089026985692
2015-10-17 21:05:16.300233,507,516.06406703192533
2015-10-17 21:05:16.315878,508,516.04724379399374
2015-10-17 21:05:16.316076,506,516.03042055606215
2015-10-17 21:05:16.316243,501,516.01359731813056
2015-10-17 21:05:16.331852,494,515.99677408019897
2015-10-17 21:05:16.332040,483,515.97995084226739
2015-10-17 21:05:16.332207,480,515.9631276043358
2015-10-17 21:05:16.347826,484,515.94630436640421
2015-10-17 21:05:16.348017,486,515.9294811284725
2015-10-17 21:05:16.348187,486,515.91265789054091
2015-10-17 21:05:16.363633,487,515.89583465260932
2015-10-17 21:05:16.363798,491,515.87901141467773
2015-10-17 21:05:16.363940,492,515.86218817674614
2015-10-17 21:05:16.380784,490,515.84536493881444
2015-10-17 21:05:16.380855,491,515.82854170088285
2015-10-17 21:05:16.380908,491,515.81171846295126
2015-10-17 21:05:16.395608,496,515.79489522501967
2015-10-17 21:05:16.395778,498,515.77807198708808
2015-10-17 21:05:16.395919,511,515.76124874915649
2015-10-17 21:05:16.411773,553,515.7444255112249
2015-10-17 21:05:16.411982,637,515.72760227329331
2015-10-17 21:05:16.412148,746,515.71077903536172
2015-10-17 21:05:16.427763,868,515.69395579743002
2015-10-17 21:05:16.427961,931,515.67713255949843
2015-10-17 21:05:16.428130,908,515.66030932156684
2015-10-17 21:05:16.443582,799,515.64348608363525
2015-10-17 21:05:16.443788,561,515.62666284570366
2015-10-17 21:05:16.443899,389,515.57097363046387
2015-10-17 21:05:16.459381,378,515.52427506560264
2015-10-17 21:05:16.459519,409,515.47757650074141
2015-10-17 21:05:16.459619,454,515.43087793588018
2015-10-17 21:05:16.475304,493,515.38417937101894
2015-10-17 21:05:16.475398,509,515.33748080615771
2015-10-17 21:05:16.475463,510,515.29078224129648
2015-10-17 21:05:16.475564,506,515.24408367643525
2015-10-17 21:05:16.491337,499,515.19738511157414
2015-10-17 21:05:16.491398,493,515.15068654671279
2015-10-17 21:05:16.491445,494,515.10398798185156
2015-10-17 21:05:16.507375,502,515.05728941699044
2015-10-17 21:05:16.507437,513,515.01059085212921
2015-10-17 21:05:16.507485,523,514.96389228726787
2015-10-17 21:05:16.523390,531,514.91719372240675
2015-10-17 21:05:16.523476,538,514.87049515754552
2015-10-17 21:05:16.523558,544,514.82379659268418
2015-10-17 21:05:16.539585,553,514.77709802782294
2015-10-17 21:05:16.539750,562,514.73039946296171
2015-10-17 21:05:16.539896,564,514.68370089810048
2015-10-17 21:05:16.555784,565,514.63700233323925
2015-10-17 21:05:16.555974,567,514.59030376837802
2015-10-17 21:05:16.556142,573,514.54360520351679
2015-10-17 21:05:16.571831,579,514.49690663865556
2015-10-17 21:05:16.572032,584,514.45020807379433
2015-10-17 21:05:16.572208,590,514.40350950893298
2015-10-17 21:05:16.587759,597,514.35681094407175
2015-10-17 21:05:16.587951,604,514.31011237921064
2015-10-17 21:05:16.588118,612,514.26341381434941
2015-10-17 21:05:16.603697,617,514.21671524948806
2015-10-17 21:05:16.603893,622,514.17389897030341
2015-10-17 21:05:16.604062,627,514.13108269111865
2015-10-17 21:05:16.619729,629,514.088266411934
2015-10-17 21:05:16.619927,633,514.04545013274924
2015-10-17 21:05:16.620093,636,514.00263385356459
2015-10-17 21:05:16.635843,639,513.95981757437994
2015-10-17 21:05:16.636043,644,513.91700129519506
2015-10-17 21:05:16.636152,648,513.87677320646151
2015-10-17 21:05:16.651664,648,513.90905757089945
2015-10-17 21:05:16.651869,643,514.07042293100369
2015-10-17 21:05:16.652041,635,514.21237686272548
2015-10-17 21:05:16.667729,627,514.35821308012385
2015-10-17 21:05:16.667937,612,514.50663748797308
2015-10-17 21:05:16.668103,592,514.65765008627329
2015-10-17 21:05:16.683670,570,514.80866268457362
2015-10-17 21:05:16.683869,549,514.95967528287395
2015-10-17 21:05:16.684034,526,515.11068788117416
2015-10-17 21:05:16.699640,505,515.26170047947448
2015-10-17 21:05:16.699960,491,515.41271307777481
2015-10-17 21:05:16.700087,478,515.56372567607514
2015-10-17 21:05:16.715550,465,515.71473827437535
2015-10-17 21:05:16.715813,455,515.86575087267568
2015-10-17 21:05:16.715981,448,516.016763470976
2015-10-17 21:05:16.731574,442,516.16777606927621
2015-10-17 21:05:16.731882,437,516.31878866757654
2015-10-17 21:05:16.731997,434,516.46980126587687
2015-10-17 21:05:16.732172,434,516.62081386417719
2015-10-17 21:05:16.747555,432,516.77182646247741
2015-10-17 21:05:16.747740,429,516.92413315600322
2015-10-17 21:05:16.747900,427,517.07902803998013
2015-10-17 21:05:16.763827,428,517.23392292395692
2015-10-17 21:05:16.764008,428,517.38881780793372
2015-10-17 21:05:16.764182,426,517.545006787136
2015-10-17 21:05:16.779672,427,517.7011957663384
2015-10-17 21:05:16.779866,433,517.85738474554068
2015-10-17 21:05:16.780038,438,518.01357372474308
2015-10-17 21:05:16.795422,438,518.16976270394537
2015-10-17 21:05:16.795618,438,518.32595168314776
2015-10-17 21:05:16.795787,440,518.48214066235016
2015-10-17 21:05:16.811630,442,518.63832964155245
2015-10-17 21:05:16.811823,439,518.79451862075484
2015-10-17 21:05:16.811992,439,518.95070759995724
2015-10-17 21:05:16.827307,442,519.10689657915952
2015-10-17 21:05:16.827429,443,519.26308555836192
2015-10-17 21:05:16.827525,443,519.41927453756432
2015-10-17 21:05:16.843357,446,519.5754635167666
2015-10-17 21:05:16.843486,452,519.731652495969
2015-10-17 21:05:16.843585,455,519.88784147517129
2015-10-17 21:05:16.859312,453,520.0440304543738
2015-10-17 21:05:16.859524,455,520.20021943357608
2015-10-17 21:05:16.859632,458,520.35640841277848
2015-10-17 21:05:16.875338,460,520.51259739198076
2015-10-17 21:05:16.875462,461,520.66878637118316
2015-10-17 21:05:16.875560,464,520.82497535038556
2015-10-17 21:05:16.891276,466,520.98116432958784
2015-10-17 21:05:16.891513,465,521.13735330879024
2015-10-17 21:05:16.891634,465,521.29354228799252
2015-10-17 21:05:16.907622,468,521.44973126719492
2015-10-17 21:05:16.907873,469,521.60592024639732
2015-10-17 21:05:16.907982,465,521.76210922559972
2015-10-17 21:05:16.923288,466,521.918298204802
2015-10-17 21:05:16.923486,468,522.0744871840044
2015-10-17 21:05:16.923654,470,522.23067616320668
2015-10-17 21:05:16.939286,470,522.38686514240908
2015-10-17 21:05:16.939448,469,522.54305412161136
2015-10-17 21:05:16.939549,472,522.69924310081376
2015-10-17 21:05:16.955206,473,522.85543208001604
2015-10-17 21:05:16.955348,470,523.01162105921844
2015-10-17 21:05:16.955447,466,523.16781003842073
2015-10-17 21:05:16.971423,468,523.32399901762312
2015-10-17 21:05:16.971689,469,523.51905397413373
2015-10-17 21:05:16.971856,468,523.70511828026565
2015-10-17 21:05:16.972015,467,523.89118258639758
2015-10-17 21:05:16.987385,468,524.0772468925295
2015-10-17 21:05:16.987507,467,524.26331119866154
2015-10-17 21:05:16.987605,464,524.44937550479347
2015-10-17 21:05:17.003608,463,524.63543981092539
2015-10-17 21:05:17.003798,465,524.82150411705743
2015-10-17 21:05:17.003963,467,525.00756842318935
2015-10-17 21:05:17.019249,465,525.19363272932128
2015-10-17 21:05:17.019465,463,525.3796970354532
2015-10-17 21:05:17.019578,463,525.56576134158524
2015-10-17 21:05:17.035677,463,525.75182564771717
2015-10-17 21:05:17.035882,464,525.93788995384909
2015-10-17 21:05:17.036049,468,526.12395425998113
2015-10-17 21:05:17.051301,471,526.31001856611306
2015-10-17 21:05:17.051517,472,526.49608287224498
2015-10-17 21:05:17.051629,471,526.68214717837691
2015-10-17 21:05:17.067547,474,526.86821148450895
2015-10-17 21:05:17.067737,478,527.05427579064087
2015-10-17 21:05:17.067907,477,527.2403400967728
2015-10-17 21:05:17.083346,480,527.42640440290472
2015-10-17 21:05:17.083541,483,527.61246870903676
2015-10-17 21:05:17.083707,484,527.7985330151688
2015-10-17 21:05:17.099500,479,527.98459732130073
2015-10-17 21:05:17.099693,479,528.17066162743265
2015-10-17 21:05:17.099859,484,528.35672593356469
2015-10-17 21:05:17.115468,486,528.54279023969661
2015-10-17 21:05:17.115661,485,528.72885454582865
2015-10-17 21:05:17.115828,486,528.91491885196058
2015-10-17 21:05:17.131322,487,529.10098315809262
2015-10-17 21:05:17.131522,480,529.28704746422454
2015-10-17 21:05:17.131690,471,529.47311177035647
2015-10-17 21:05:17.147197,461,529.65917607648851
2015-10-17 21:05:17.147321,451,529.84524038262043
2015-10-17 21:05:17.147418,448,530.03130468875247
2015-10-17 21:05:17.163355,452,530.2173689948844
2015-10-17 21:05:17.163554,455,530.40343330101643
2015-10-17 21:05:17.163721,455,530.51827924920224
2015-10-17 21:05:17.179171,455,530.50404420172163
2015-10-17 21:05:17.179313,457,530.5092205826237
2015-10-17 21:05:17.179413,457,530.51439696352577
2015-10-17 21:05:17.195257,455,530.51957334442784
2015-10-17 21:05:17.195472,453,530.5247497253298
2015-10-17 21:05:17.195670,455,530.52992610623187
2015-10-17 21:05:17.211257,468,530.53510248713394
2015-10-17 21:05:17.211472,474,530.5402788680359
2015-10-17 21:05:17.211644,488,530.54545524893797
2015-10-17 21:05:17.211809,537,530.55063162984004
2015-10-17 21:05:17.227529,623,530.555808010742
2015-10-17 21:05:17.227723,725,530.56098439164407
2015-10-17 21:05:17.227889,831,530.56616077254614
2015-10-17 21:05:17.243351,879,530.5713371534481
2015-10-17 21:05:17.243543,853,530.57651353435017
2015-10-17 21:05:17.243709,735,530.58168991525213
2015-10-17 21:05:17.259213,501,530.5868662961542
2015-10-17 21:05:17.259338,357,530.37577451711013
2015-10-17 21:05:17.259436,361,530.02370104545605
2015-10-17 21:05:17.275228,391,529.67033347857659
2015-10-17 21:05:17.275353,427,529.31437772124605
2015-10-17 21:05:17.275449,467,528.95842196391538
2015-10-17 21:05:17.291500,489,528.60246620658495
2015-10-17 21:05:17.291680,492,528.24521635402891
2015-10-17 21:05:17.291803,489,527.88796650147276
2015-10-17 21:05:17.307298,492,527.53071664891672
2015-10-17 21:05:17.307493,494,527.17346679636069
2015-10-17 21:05:17.307659,494,526.81621694380465
2015-10-17 21:05:17.323457,502,526.45896709124861
2015-10-17 21:05:17.323653,517,526.10171723869257
2015-10-17 21:05:17.323824,529,525.74446738613653
2015-10-17 21:05:17.339405,535,525.3872175335805
2015-10-17 21:05:17.339594,542,525.02996768102435
2015-10-17 21:05:17.339757,550,524.67271782846831
2015-10-17 21:05:17.355399,555,524.31546797591227
2015-10-17 21:05:17.355598,558,523.95821812335623
2015-10-17 21:05:17.355765,561,523.60096827080019
2015-10-17 21:05:17.371380,564,523.24371841824416
2015-10-17 21:05:17.371575,564,522.88646856568812
2015-10-17 21:05:17.371745,566,522.52921871313208
2015-10-17 21:05:17.387359,570,522.17196886057593
2015-10-17 21:05:17.387564,574,521.81471900801989
2015-10-17 21:05:17.387737,578,521.45746915546385
2015-10-17 21:05:17.403322,585,521.10021930290782
2015-10-17 21:05:17.403519,597,520.74296945035178
2015-10-17 21:05:17.403689,604,520.38571959779574
2015-10-17 21:05:17.419348,609,520.0284697452397
2015-10-17 21:05:17.419553,617,519.67121989268367
2015-10-17 21:05:17.419723,627,519.31397004012763
2015-10-17 21:05:17.435209,637,518.95672018757148
2015-10-17 21:05:17.435473,641,518.59947033501544
2015-10-17 21:05:17.435637,646,518.2422204824594
2015-10-17 21:05:17.451194,650,517.88497062990336
2015-10-17 21:05:17.451465,650,517.52772077734733
2015-10-17 21:05:17.451641,648,517.17047092479129
2015-10-17 21:05:17.467211,646,516.81322107223525
2015-10-17 21:05:17.467426,644,516.45597121967921
2015-10-17 21:05:17.467598,637,516.09872136712306
2015-10-17 21:05:17.467761,625,515.74147151456714
2015-10-17 21:05:17.483399,614,515.3842216620111
2015-10-17 21:05:17.483589,602,515.02697180945506
2015-10-17 21:05:17.483755,586,514.66713376644805
2015-10-17 21:05:17.499344,569,514.31314071222732
2015-10-17 21:05:17.499541,553,513.93714803917294
2015-10-17 21:05:17.499710,538,513.56115536611856
2015-10-17 21:05:17.515396,522,513.18516269306417
2015-10-17 21:05:17.515592,508,512.80917002000979
2015-10-17 21:05:17.515763,498,512.4331773469554
2015-10-17 21:05:17.531199,489,512.05718467390102
2015-10-17 21:05:17.531394,480,511.68119200084664
2015-10-17 21:05:17.531566,475,511.30519932779225
2015-10-17 21:05:17.547300,473,510.92920665473787
2015-10-17 21:05:17.547544,468,510.55321398168348
2015-10-17 21:05:17.547697,464,510.1772213086291
2015-10-17 21:05:17.563296,463,509.80122863557472
2015-10-17 21:05:17.563488,463,509.42523596252033
2015-10-17 21:05:17.563654,463,509.04924328946595
2015-10-17 21:05:17.579271,462,508.67325061641156
2015-10-17 21:05:17.579464,464,508.29725794335718
2015-10-17 21:05:17.579631,470,507.9212652703028
2015-10-17 21:05:17.595243,471,507.54527259724841
2015-10-17 21:05:17.595440,470,507.16927992419403
2015-10-17 21:05:17.595605,472,506.79328725113965
2015-10-17 21:05:17.611024,472,506.41729457808526
2015-10-17 21:05:17.611189,472,506.04130190503088
2015-10-17 21:05:17.611291,476,505.66530923197649
2015-10-17 21:05:17.627105,481,505.28931655892211
2015-10-17 21:05:17.627307,485,504.91332388586773
2015-10-17 21:05:17.627476,486,504.53733121281334
2015-10-17 21:05:17.643244,487,504.16133853975896
2015-10-17 21:05:17.643447,491,503.78534586670457
2015-10-17 21:05:17.643613,494,503.40935319365019
2015-10-17 21:05:17.659215,496,503.03336052059581
2015-10-17 21:05:17.659431,499,502.65736784754131
2015-10-17 21:05:17.659539,503,502.28137517448704
2015-10-17 21:05:17.675141,503,501.90538250143254
2015-10-17 21:05:17.675381,502,501.52938982837827
2015-10-17 21:05:17.675550,501,501.15339715532389
2015-10-17 21:05:17.691085,501,500.7774044822695
2015-10-17 21:05:17.691351,500,500.40141180921501
2015-10-17 21:05:17.691519,500,500.02541913616062
2015-10-17 21:05:17.707128,503,499.64942646310612
2015-10-17 21:05:17.707397,504,499.27343379005174
2015-10-17 21:05:17.707567,503,498.89744111699736
2015-10-17 21:05:17.707735,502,498.52144844394286
2015-10-17 21:05:17.723217,505,498.14545577088847
2015-10-17 21:05:17.723412,507,497.76946309783403
2015-10-17 21:05:17.723582,508,497.39347042477965
2015-10-17 21:05:17.739229,507,497.01747775172521
2015-10-17 21:05:17.739516,508,496.64148507867083
2015-10-17 21:05:17.739687,510,496.26549240561644
2015-10-17 21:05:17.755216,511,495.889499732562
2015-10-17 21:05:17.755407,508,495.51350705950756
2015-10-17 21:05:17.755573,507,495.13751438645318
2015-10-17 21:05:17.771194,506,494.76152171339874
2015-10-17 21:05:17.771387,506,494.3855290403443
2015-10-17 21:05:17.771554,506,494.00953636728985
2015-10-17 21:05:17.787163,508,493.84981185418167
2015-10-17 21:05:17.787354,510,493.83106903368326
2015-10-17 21:05:17.787523,511,493.8123262131848
2015-10-17 21:05:17.803192,514,493.79358339268646
2015-10-17 21:05:17.803383,517,493.774840572188
2015-10-17 21:05:17.803553,520,493.75609775168965
2015-10-17 21:05:17.819115,521,493.73606083596565
2015-10-17 21:05:17.819311,521,493.71602392024175
2015-10-17 21:05:17.819480,522,493.6959870045178
2015-10-17 21:05:17.835133,524,493.67595008879385
2015-10-17 21:05:17.835329,527,493.65591317306991
2015-10-17 21:05:17.835499,528,493.63587625734601
2015-10-17 21:05:17.850981,522,493.61583934162206
2015-10-17 21:05:17.851175,519,493.59580242589811
2015-10-17 21:05:17.851344,522,493.57576551017422
2015-10-17 21:05:17.867138,523,493.55572859445022
2015-10-17 21:05:17.867335,524,493.53569167872632
2015-10-17 21:05:17.867505,526,493.51565476300237
2015-10-17 21:05:17.883081,526,493.49561784727842
2015-10-17 21:05:17.883290,521,493.47558093155448
2015-10-17 21:05:17.883460,509,493.45554401583058
2015-10-17 21:05:17.899075,494,493.43550710010658
2015-10-17 21:05:17.899274,488,493.41547018438268
2015-10-17 21:05:17.899439,488,493.39543326865873
2015-10-17 21:05:17.915085,488,493.37539635293479
2015-10-17 21:05:17.915291,484,493.35535943721084
2015-10-17 21:05:17.915459,480,493.33532252148694
2015-10-17 21:05:17.930933,477,493.31528560576305
2015-10-17 21:05:17.931198,477,493.29524869003905
2015-10-17 21:05:17.931362,476,493.2752117743151
2015-10-17 21:05:17.946798,475,493.25517485859115
2015-10-17 21:05:17.946939,475,493.23513794286725
2015-10-17 21:05:17.947038,480,493.21510102714331
2015-10-17 21:05:17.962638,491,493.19506411141936
2015-10-17 21:05:17.962827,498,493.17502719569546
2015-10-17 21:05:17.962927,514,493.15499027997151
2015-10-17 21:05:17.963023,557,493.13495336424762
2015-10-17 21:05:17.978829,631,493.11491644852367
2015-10-17 21:05:17.978939,718,493.09487953279972
2015-10-17 21:05:17.979036,802,493.07484261707583
2015-10-17 21:05:17.995137,835,493.05480570135182
2015-10-17 21:05:17.995341,807,493.03476878562793
2015-10-17 21:05:17.995509,709,493.01473186990404
2015-10-17 21:05:18.011100,509,492.99469495418015
2015-10-17 21:05:18.011291,376,492.99021207681932
2015-10-17 21:05:18.011461,380,492.99411925815281
2015-10-17 21:05:18.027062,409,493.02002605832001
2015-10-17 21:05:18.027259,438,493.04593285848716
2015-10-17 21:05:18.027427,473,493.07183965865437
2015-10-17 21:05:18.043071,493,493.09774645882152
2015-10-17 21:05:18.043264,502,493.12365325898872
2015-10-17 21:05:18.043430,500,493.14956005915587
2015-10-17 21:05:18.059103,497,493.17546685932308
2015-10-17 21:05:18.059317,499,493.20137365949023
2015-10-17 21:05:18.059424,504,493.22728045965744
2015-10-17 21:05:18.074881,507,493.25318725982459
2015-10-17 21:05:18.075041,510,493.27909405999179
2015-10-17 21:05:18.075180,517,493.30500086015894
2015-10-17 21:05:18.091014,524,493.33090766032615
2015-10-17 21:05:18.091209,529,493.3568144604933
2015-10-17 21:05:18.091376,537,493.3827212606605
2015-10-17 21:05:18.107052,542,493.40862806082765
2015-10-17 21:05:18.107250,546,493.43453486099486
2015-10-17 21:05:18.107422,546,493.46044166116201
2015-10-17 21:05:18.122834,549,493.48634846132921
2015-10-17 21:05:18.123031,555,493.51225526149636
2015-10-17 21:05:18.123197,560,493.53816206166357
2015-10-17 21:05:18.138946,564,493.56406886183072
2015-10-17 21:05:18.139147,570,493.58997566199793
2015-10-17 21:05:18.139318,577,493.61588246216508
2015-10-17 21:05:18.154955,585,493.64178926233228
2015-10-17 21:05:18.155157,593,493.66769606249943
2015-10-17 21:05:18.155326,603,493.69360286266664
2015-10-17 21:05:18.170861,617,493.71950966283379
2015-10-17 21:05:18.171130,629,493.74541646300099
2015-10-17 21:05:18.171302,634,493.77132326316814
2015-10-17 21:05:18.186864,638,493.79723006333535
2015-10-17 21:05:18.187132,640,493.8231368635025
2015-10-17 21:05:18.187301,642,493.8490436636697
2015-10-17 21:05:18.202861,641,493.87495046383685
2015-10-17 21:05:18.203134,640,493.90085726400406
2015-10-17 21:05:18.203304,635,493.92676406417121
2015-10-17 21:05:18.203472,629,493.9526708643383
2015-10-17 21:05:18.219017,621,493.97857766450545
2015-10-17 21:05:18.219207,613,494.0044844646726
2015-10-17 21:05:18.219374,603,494.03039126483975
2015-10-17 21:05:18.235123,587,494.0562980650069
2015-10-17 21:05:18.235337,567,494.08220486517405
2015-10-17 21:05:18.235514,550,494.1081116653412
2015-10-17 21:05:18.251034,534,494.13401846550823
2015-10-17 21:05:18.251226,519,494.15992526567538
2015-10-17 21:05:18.251394,506,494.18583206584253
2015-10-17 21:05:18.267015,497,494.21173886600968
2015-10-17 21:05:18.267200,488,494.23764566617672
2015-10-17 21:05:18.267365,479,494.26355246634387
2015-10-17 21:05:18.283013,474,494.28945926651102
2015-10-17 21:05:18.283212,473,494.31536606667817
2015-10-17 21:05:18.283379,470,494.34127286684532
2015-10-17 21:05:18.298938,466,494.36717966701235
2015-10-17 21:05:18.299129,462,494.3930864671795
2015-10-17 21:05:18.299295,461,494.55851993667409
2015-10-17 21:05:18.314904,458,494.83122060671542
2015-10-17 21:05:18.315098,456,495.120973458945
2015-10-17 21:05:18.315266,454,495.39649126369403
2015-10-17 21:05:18.330910,452,495.67200906844306
2015-10-17 21:05:18.331106,450,495.94752687319209
2015-10-17 21:05:18.331271,451,496.22433877316655
2015-10-17 21:05:18.346913,455,496.50115067314113
2015-10-17 21:05:18.347111,459,496.77796257311564
2015-10-17 21:05:18.347274,460,497.05477447309016
2015-10-17 21:05:18.362922,461,497.33158637306468
2015-10-17 21:05:18.363121,464,497.60839827303926
2015-10-17 21:05:18.363402,466,497.88521017301372
2015-10-17 21:05:18.378865,464,498.16202207298829
2015-10-17 21:05:18.378991,465,498.43883397296281
2015-10-17 21:05:18.379088,466,498.71564587293744
2015-10-17 21:05:18.394846,465,498.99245777291196
2015-10-17 21:05:18.395046,465,499.26926967288648
2015-10-17 21:05:18.395215,466,499.546081572861
2015-10-17 21:05:18.410735,469,499.82289347283563
2015-10-17 21:05:18.411006,471,500.09970537281015
2015-10-17 21:05:18.411176,471,500.37651727278467
2015-10-17 21:05:18.426738,473,500.65332917275919
2015-10-17 21:05:18.427003,475,500.93014107273382
2015-10-17 21:05:18.427173,474,501.20695297270834
2015-10-17 21:05:18.442864,473,501.48376487268285
2015-10-17 21:05:18.443119,475,501.76057677265737
2015-10-17 21:05:18.443295,478,502.03738867263201
2015-10-17 21:05:18.443458,477,502.31420057260641
2015-10-17 21:05:18.458907,473,502.59101247258104
2015-10-17 21:05:18.459103,474,502.86782437255556
2015-10-17 21:05:18.459272,476,503.14463627253019
2015-10-17 21:05:18.474914,474,503.4214481725046
2015-10-17 21:05:18.475104,469,503.69826007247923
2015-10-17 21:05:18.475270,469,503.97507197245375
2015-10-17 21:05:18.490864,470,504.25188387242838
2015-10-17 21:05:18.491056,467,504.52869577240278
2015-10-17 21:05:18.491222,465,504.80550767237742
2015-10-17 21:05:18.506883,470,505.08231957235193
2015-10-17 21:05:18.507071,472,505.35913147232657
2015-10-17 21:05:18.507237,474,505.63594337230109
2015-10-17 21:05:18.522866,477,505.9127552722756
2015-10-17 21:05:18.523055,481,506.18956717225012
2015-10-17 21:05:18.523219,484,506.46637907222475
2015-10-17 21:05:18.538829,485,506.73022512428724
2015-10-17 21:05:18.539024,486,506.97983612886912
2015-10-17 21:05:18.539192,488,507.229447133451
2015-10-17 21:05:18.554834,489,507.47905813803288
2015-10-17 21:05:18.555026,490,507.72866914261476
2015-10-17 21:05:18.555189,486,507.97828014719664
2015-10-17 21:05:18.570801,486,508.22789115177852
2015-10-17 21:05:18.570992,486,508.47750215636052
2015-10-17 21:05:18.571157,485,508.72711316094239
2015-10-17 21:05:18.586788,487,508.97672416552427
2015-10-17 21:05:18.586977,488,509.22633517010615
2015-10-17 21:05:18.587141,487,509.47594617468803
2015-10-17 21:05:18.602786,480,509.72555717926991
2015-10-17 21:05:18.602985,474,509.97516818385179
2015-10-17 21:05:18.603150,463,510.22477918843367
2015-10-17 21:05:18.618769,455,510.47439019301567
2015-10-17 21:05:18.618967,455,510.72400119759754
2015-10-17 21:05:18.619135,457,510.97361220217942
2015-10-17 21:05:18.634759,459,511.2232232067613
2015-10-17 21:05:18.634959,460,511.47283421134318
2015-10-17 21:05:18.635125,459,511.72244521592506
2015-10-17 21:05:18.650722,458,511.97205622050694
2015-10-17 21:05:18.650924,457,512.22166722508882
2015-10-17 21:05:18.651096,455,512.4712782296707
2015-10-17 21:05:18.666633,457,512.7208892342527
2015-10-17 21:05:18.666898,460,512.97050023883446
2015-10-17 21:05:18.667066,468,513.22011124341634
2015-10-17 21:05:18.682636,475,513.46972224799822
2015-10-17 21:05:18.682902,482,513.7193332525801
2015-10-17 21:05:18.683067,522,513.96894425716198
2015-10-17 21:05:18.698652,600,514.21855526174386
2015-10-17 21:05:18.698888,684,514.46816626632574
2015-10-17 21:05:18.699055,769,514.71777727090762
2015-10-17 21:05:18.699224,812,514.9673882754895
2015-10-17 21:05:18.714792,784,515.21699928007138
2015-10-17 21:05:18.714989,709,515.46661028465326
2015-10-17 21:05:18.715154,532,515.71622128923514
2015-10-17 21:05:18.730812,364,515.84694313189777
2015-10-17 21:05:18.731003,338,515.78027566751234
2015-10-17 21:05:18.731169,367,515.69861163590531
2015-10-17 21:05:18.746784,398,515.61694760429828
2015-10-17 21:05:18.746973,435,515.53528357269113
2015-10-17 21:05:18.747138,459,515.45361954108409
2015-10-17 21:05:18.762765,467,515.37195550947706
2015-10-17 21:05:18.762957,466,515.29029147786991
2015-10-17 21:05:18.763123,464,515.20862744626288
2015-10-17 21:05:18.778737,464,515.12696341465585
2015-10-17 21:05:18.778927,468,515.0452993830487
2015-10-17 21:05:18.779092,475,514.96363535144167
2015-10-17 21:05:18.794728,483,514.88197131983463
2015-10-17 21:05:18.794924,491,514.80030728822749
2015-10-17 21:05:18.795094,499,514.71864325662045
2015-10-17 21:05:18.810686,508,514.63697922501342
2015-10-17 21:05:18.810882,514,514.55531519340627
2015-10-17 21:05:18.811043,518,514.47365116179924
2015-10-17 21:05:18.826685,522,514.39198713019221
2015-10-17 21:05:18.826878,526,514.17079642925762
2015-10-17 21:05:18.827039,530,513.84233852777629
2015-10-17 21:05:18.842686,532,513.49682844410688
2015-10-17 21:05:18.842878,534,513.16555340791786
2015-10-17 21:05:18.843042,537,512.83427837172894
2015-10-17 21:05:18.858657,542,512.50300333553992
2015-10-17 21:05:18.858859,553,512.171728299351
2015-10-17 21:05:18.859027,565,511.84045326316198
2015-10-17 21:05:18.874681,573,511.50917822697306
2015-10-17 21:05:18.874889,582,511.17790319078404
2015-10-17 21:05:18.875061,592,510.84662815459512
2015-10-17 21:05:18.890630,604,510.5153531184061
2015-10-17 21:05:18.890831,613,510.18407808221718
2015-10-17 21:05:18.890997,620,509.85280304602816
2015-10-17 21:05:18.906543,624,509.52152800983924
2015-10-17 21:05:18.906810,626,509.19025297365022
2015-10-17 21:05:18.906980,625,508.8589779374613
2015-10-17 21:05:18.922530,623,508.52770290127228
2015-10-17 21:05:18.922797,620,508.19642786508348
2015-10-17 21:05:18.922968,618,507.86515282889434
2015-10-17 21:05:18.938493,613,507.53387779270554
2015-10-17 21:05:18.938713,604,507.20260275651651
2015-10-17 21:05:18.938886,595,506.87132772032749
2015-10-17 21:05:18.939051,584,506.54005268413857
2015-10-17 21:05:18.954694,565,506.20877764794955
2015-10-17 21:05:18.954884,541,505.87750261176063
2015-10-17 21:05:18.955049,525,505.54622757557161
2015-10-17 21:05:18.970674,511,505.21495253938269
2015-10-17 21:05:18.970870,495,504.88367750319378
2015-10-17 21:05:18.971034,481,504.55240246700475
2015-10-17 21:05:18.986671,471,504.22112743081584
2015-10-17 21:05:18.986865,464,503.88985239462681
2015-10-17 21:05:18.987029,455,503.5585773584379
2015-10-17 21:05:19.002723,447,503.22730232224887
2015-10-17 21:05:19.002920,447,502.89602728605996
2015-10-17 21:05:19.003087,445,502.56475224987093
2015-10-17 21:05:19.018634,439,502.23347721368202
2015-10-17 21:05:19.018826,438,501.90220217749311
2015-10-17 21:05:19.018991,438,501.57092714130408
2015-10-17 21:05:19.034641,436,501.23965210511517
2015-10-17 21:05:19.034832,433,500.90837706892614
2015-10-17 21:05:19.034996,431,500.57710203273723
2015-10-17 21:05:19.050603,431,500.2458269965482
2015-10-17 21:05:19.050796,429,499.91455196035929
2015-10-17 21:05:19.050962,426,499.57810054326831
2015-10-17 21:05:19.066602,430,499.21835541211806
2015-10-17 21:05:19.066793,437,498.85861028096792
2015-10-17 21:05:19.066952,440,498.49886514981768
2015-10-17 21:05:19.082584,442,498.13912001866754
2015-10-17 21:05:19.082776,444,497.77937488751729
2015-10-17 21:05:19.082944,447,497.4196297563671
2015-10-17 21:05:19.098554,448,497.05988462521691
2015-10-17 21:05:19.098754,450,496.70013949406672
2015-10-17 21:05:19.098918,453,496.34039436291647
2015-10-17 21:05:19.114553,453,495.98064923176628
2015-10-17 21:05:19.114751,450,495.62090410061609
2015-10-17 21:05:19.114916,451,495.26115896946578
2015-10-17 21:05:19.130579,455,494.90141383831559
2015-10-17 21:05:19.130787,459,494.5416687071654
2015-10-17 21:05:19.130956,458,494.18192357601521
2015-10-17 21:05:19.146532,455,493.82217844486496
2015-10-17 21:05:19.146732,457,493.46243331371477
2015-10-17 21:05:19.146902,460,493.10268818256458
2015-10-17 21:05:19.162455,461,492.74294305141439
2015-10-17 21:05:19.162688,464,492.38319792026408
2015-10-17 21:05:19.162857,468,492.02345278911389
2015-10-17 21:05:19.178441,470,491.6637076579637
2015-10-17 21:05:19.178705,470,491.30396252681351
2015-10-17 21:05:19.178876,470,490.94421739566326
2015-10-17 21:05:19.194568,472,490.58447226451307
2015-10-17 21:05:19.194886,473,490.22472713336282
2015-10-17 21:05:19.195062,473,489.86498200221263
2015-10-17 21:05:19.195225,473,489.50523687106232
2015-10-17 21:05:19.210592,474,489.14549173991213
2015-10-17 21:05:19.210780,475,488.78574660876194
2015-10-17 21:05:19.210945,476,488.42600147761169
2015-10-17 21:05:19.226581,479,488.0662563464615
2015-10-17 21:05:19.226763,481,487.70651121531131
2015-10-17 21:05:19.226920,482,487.346766084161
2015-10-17 21:05:19.242592,483,486.98702095301093
2015-10-17 21:05:19.242785,487,486.62727582186062
2015-10-17 21:05:19.242952,493,486.38641985262967
2015-10-17 21:05:19.258615,494,486.34295319044674
2015-10-17 21:05:19.258812,494,486.31448309548551
2015-10-17 21:05:19.258980,499,486.28601300052429
2015-10-17 21:05:19.274559,501,486.25754290556307
2015-10-17 21:05:19.274751,497,486.22907281060185
2015-10-17 21:05:19.274921,496,486.20060271564063
2015-10-17 21:05:19.290546,500,486.17213262067935
2015-10-17 21:05:19.290735,501,486.14366252571813
2015-10-17 21:05:19.290902,498,486.11519243075691
2015-10-17 21:05:19.306500,497,486.08672233579568
2015-10-17 21:05:19.306696,497,486.05825224083446
2015-10-17 21:05:19.306871,493,486.02978214587324
2015-10-17 21:05:19.322501,485,486.00131205091196
2015-10-17 21:05:19.322688,480,485.97284195595074
2015-10-17 21:05:19.322847,472,485.94437186098952
2015-10-17 21:05:19.338504,465,485.9159017660283
2015-10-17 21:05:19.338703,465,485.88743167106708
2015-10-17 21:05:19.338871,470,485.85896157610586
2015-10-17 21:05:19.354447,469,485.83049148114458
2015-10-17 21:05:19.354648,465,485.80202138618336
2015-10-17 21:05:19.354812,466,485.77355129122213
2015-10-17 21:05:19.370454,470,485.74508119626091
2015-10-17 21:05:19.370649,470,485.71661110129969
2015-10-17 21:05:19.370815,468,485.68814100633847
2015-10-17 21:05:19.386536,470,485.65967091137725
2015-10-17 21:05:19.386745,481,485.63120081641597
2015-10-17 21:05:19.386913,486,485.60273072145475
2015-10-17 21:05:19.402362,496,485.57426062649353
2015-10-17 21:05:19.402627,539,485.5457905315323
2015-10-17 21:05:19.402798,625,485.51732043657108
2015-10-17 21:05:19.418337,719,485.48885034160986
2015-10-17 21:05:19.418605,813,485.4603802466487
2015-10-17 21:05:19.418776,857,485.43191015168748
2015-10-17 21:05:19.434332,826,485.40344005672631
2015-10-17 21:05:19.434595,734,485.37496996176503
2015-10-17 21:05:19.434765,526,485.34649986680392
2015-10-17 21:05:19.434930,363,485.34305724475485
2015-10-17 21:05:19.450513,352,485.24923867629087
2015-10-17 21:05:19.450704,383,485.15542010782684
2015-10-17 21:05:19.450872,418,485.06160153936287
2015-10-17 21:05:19.466517,458,484.96778297089884
2015-10-17 21:05:19.466707,479,484.87396440243481
2015-10-17 21:05:19.466872,482,484.78014583397078
2015-10-17 21:05:19.482514,476,484.6863272655068
2015-10-17 21:05:19.482702,477,484.59250869704277
2015-10-17 21:05:19.482864,481,484.4986901285788
2015-10-17 21:05:19.498463,486,484.40487156011471
2015-10-17 21:05:19.498655,495,484.31105299165068
2015-10-17 21:05:19.498822,507,484.21723442318671
2015-10-17 21:05:19.514516,516,484.12341585472268
2015-10-17 21:05:19.514711,524,484.02959728625871
2015-10-17 21:05:19.514884,530,483.93577871779462
2015-10-17 21:05:19.530458,540,483.84196014933059
2015-10-17 21:05:19.530651,549,483.74814158086662
2015-10-17 21:05:19.530816,556,483.65432301240259
2015-10-17 21:05:19.546431,562,483.5605044439385
2015-10-17 21:05:19.546627,571,483.46668587547452
2015-10-17 21:05:19.546793,580,483.37286730701049
2015-10-17 21:05:19.562410,586,483.27904873854646
2015-10-17 21:05:19.562602,595,483.18523017008249
2015-10-17 21:05:19.562766,604,483.0914116016184
2015-10-17 21:05:19.578468,611,482.99759303315443
2015-10-17 21:05:19.578666,617,482.90895084559247
2015-10-17 21:05:19.578832,623,482.84360237208961
2015-10-17 21:05:19.594368,630,482.7782538985868
2015-10-17 21:05:19.594563,635,482.71290542508399
2015-10-17 21:05:19.594723,639,482.64755695158118
2015-10-17 21:05:19.610376,647,482.58220847807837
2015-10-17 21:05:19.610579,656,482.51686000457556
2015-10-17 21:05:19.610746,662,482.4515115310727
2015-10-17 21:05:19.626313,663,482.38616305756983
2015-10-17 21:05:19.626604,666,482.32081458406702
2015-10-17 21:05:19.626777,665,482.2554661105641
2015-10-17 21:05:19.642258,663,482.19011763706129
2015-10-17 21:05:19.642537,659,482.12476916355843
2015-10-17 21:05:19.642707,652,482.05942069005562
2015-10-17 21:05:19.658240,643,481.99407221655269
2015-10-17 21:05:19.658485,631,481.92872374304989
2015-10-17 21:05:19.658656,616,481.86337526954702
2015-10-17 21:05:19.674214,597,481.79802679604416
2015-10-17 21:05:19.674452,574,481.73267832254129
2015-10-17 21:05:19.674622,551,481.66732984903848
2015-10-17 21:05:19.674785,531,481.60198137553556
2015-10-17 21:05:19.690376,515,481.53663290203275
2015-10-17 21:05:19.690568,499,481.47128442852988
2015-10-17 21:05:19.690732,485,481.40593595502708
2015-10-17 21:05:19.706384,476,481.34058748152415
2015-10-17 21:05:19.706576,467,481.27523900802134
2015-10-17 21:05:19.706742,459,481.20989053451848
2015-10-17 21:05:19.722377,456,481.14454206101561
2015-10-17 21:05:19.722567,456,481.07919358751275
2015-10-17 21:05:19.722730,452,481.01384511400988
2015-10-17 21:05:19.738349,446,480.94849664050702
2015-10-17 21:05:19.738540,441,480.88314816700415
2015-10-17 21:05:19.738702,439,480.81779969350134
2015-10-17 21:05:19.754331,436,480.75245121999842
2015-10-17 21:05:19.754525,431,480.68710274649561
2015-10-17 21:05:19.754692,431,480.62175427299275
2015-10-17 21:05:19.770377,430,480.55640579948994
2015-10-17 21:05:19.770571,428,480.48717504031049
2015-10-17 21:05:19.770739,425,480.565836113496
2015-10-17 21:05:19.786299,428,480.66094877718552
2015-10-17 21:05:19.786495,432,480.73017953636491
2015-10-17 21:05:19.786661,432,480.79941029554425
2015-10-17 21:05:19.802298,430,480.8686410547237
2015-10-17 21:05:19.802489,431,480.93787181390303
2015-10-17 21:05:19.802654,435,481.00710257308242
2015-10-17 21:05:19.818276,436,481.07633333226175
2015-10-17 21:05:19.818473,438,481.14556409144114
2015-10-17 21:05:19.818637,442,481.21479485062048
2015-10-17 21:05:19.834231,445,481.28402560979993
2015-10-17 21:05:19.834431,445,481.35325636897926
2015-10-17 21:05:19.834597,446,481.42248712815865
2015-10-17 21:05:19.850238,451,481.49171788733798
2015-10-17 21:05:19.850441,454,481.56094864651737
2015-10-17 21:05:19.850608,454,481.63017940569682
2015-10-17 21:05:19.866233,455,481.69941016487616
2015-10-17 21:05:19.866428,458,481.76864092405555
2015-10-17 21:05:19.866590,459,481.83787168323488
2015-10-17 21:05:19.882127,458,481.90710244241427
2015-10-17 21:05:19.882392,458,481.9763332015936
2015-10-17 21:05:19.882562,460,482.04556396077305
2015-10-17 21:05:19.898159,460,482.11479471995239
2015-10-17 21:05:19.898425,458,482.18402547913178
2015-10-17 21:05:19.898595,458,482.25325623831111
2015-10-17 21:05:19.914068,459,482.3224869974905
2015-10-17 21:05:19.914273,460,482.39171775666989
2015-10-17 21:05:19.914440,460,482.46094851584928
2015-10-17 21:05:19.930122,462,482.53017927502862
2015-10-17 21:05:19.930390,466,482.59941003420795
2015-10-17 21:05:19.930554,464,482.66864079338734
2015-10-17 21:05:19.930717,460,482.73787155256667
2015-10-17 21:05:19.946168,461,482.80710231174612
2015-10-17 21:05:19.946358,467,482.87633307092551
2015-10-17 21:05:19.946523,471,482.9455638301049
2015-10-17 21:05:19.962270,472,483.01479458928435
2015-10-17 21:05:19.962458,474,483.05899787555154
2015-10-17 21:05:19.962621,475,483.19357710823385
2015-10-17 21:05:19.978269,473,483.32815634091605
2015-10-17 21:05:19.978462,472,483.46273557359837
2015-10-17 21:05:19.978630,474,483.59731480628062
2015-10-17 21:05:19.994144,476,483.73189403896288
2015-10-17 21:05:19.994342,478,483.86647327164513
2015-10-17 21:05:19.994512,480,484.00105250432745
2015-10-17 21:05:20.010111,483,484.13563173700965
2015-10-17 21:05:20.010216,483,484.27021096969196
2015-10-17 21:05:20.010299,482,484.40479020237416
2015-10-17 21:05:20.025805,485,484.53936943505647
2015-10-17 21:05:20.025915,487,484.67394866773873
2015-10-17 21:05:20.026009,487,484.80852790042098
2015-10-17 21:05:20.042199,484,484.94310713310324
2015-10-17 21:05:20.042397,485,485.07768636578555
2015-10-17 21:05:20.042566,483,485.21226559846775
2015-10-17 21:05:20.057843,484,485.34684483115007
2015-10-17 21:05:20.057938,487,485.48142406383226
2015-10-17 21:05:20.058004,490,485.61600329651458
2015-10-17 21:05:20.074183,490,485.75058252919678
2015-10-17 21:05:20.074381,488,485.88516176187909
2015-10-17 21:05:20.074553,488,486.01974099456135
2015-10-17 21:05:20.090129,485,486.1543202272436
2015-10-17 21:05:20.090328,480,486.28889945992586
2015-10-17 21:05:20.090498,471,486.42347869260817
2015-10-17 21:05:20.106141,461,486.55805792529037
2015-10-17 21:05:20.106344,459,486.69263715797268
2015-10-17 21:05:20.106511,461,486.82721639065488
2015-10-17 21:05:20.122117,460,486.9617956233372
2015-10-17 21:05:20.122321,460,487.09637485601945
2015-10-17 21:05:20.122487,461,487.23095408870165
2015-10-17 21:05:20.138024,462,487.36553332138391
2015-10-17 21:05:20.138297,462,487.50011255406616
2015-10-17 21:05:20.138466,463,487.63469178674842
2015-10-17 21:05:20.154070,465,487.76927101943062
2015-10-17 21:05:20.154348,465,487.90385025211287
2015-10-17 21:05:20.154523,470,488.03842948479519
2015-10-17 21:05:20.170009,479,488.17300871747739
2015-10-17 21:05:20.170283,488,488.30758795015964
2015-10-17 21:05:20.170451,523,488.44216718284184
2015-10-17 21:05:20.170615,601,488.57674641552416
2015-10-17 21:05:20.186187,698,488.71132564820635
2015-10-17 21:05:20.186377,809,488.84590488088861
2015-10-17 21:05:20.186541,882,488.98048411357081
2015-10-17 21:05:20.202180,869,489.11506334625312
2015-10-17 21:05:20.202370,801,489.24964257893532
2015-10-17 21:05:20.202533,603,489.38422181161758
2015-10-17 21:05:20.218037,385,489.56150618674167
2015-10-17 21:05:20.218227,336,489.52725911919401
2015-10-17 21:05:20.218398,366,489.51501167048008
2015-10-17 21:05:20.234133,409,489.50276422176614
2015-10-17 21:05:20.234329,452,489.49051677305221
2015-10-17 21:05:20.234495,474,489.47826932433821
2015-10-17 21:05:20.250133,478,489.46602187562434
2015-10-17 21:05:20.250403,472,489.45377442691034
2015-10-17 21:05:20.250593,467,489.44152697819646
2015-10-17 21:05:20.266130,471,489.42927952948247
2015-10-17 21:05:20.266326,478,489.41703208076854
2015-10-17 21:05:20.266494,483,489.4047846320546
2015-10-17 21:05:20.282178,491,489.39253718334066
2015-10-17 21:05:20.282373,501,489.38028973462667
2015-10-17 21:05:20.282547,510,489.36804228591279
2015-10-17 21:05:20.298095,515,489.35967712287533
2015-10-17 21:05:20.298293,521,489.20342012747307
2015-10-17 21:05:20.298458,530,489.03071154156657
2015-10-17 21:05:20.314096,536,488.88388486017038
2015-10-17 21:05:20.314286,539,488.73705817877419
2015-10-17 21:05:20.314453,544,488.590231497378
2015-10-17 21:05:20.330038,552,488.44340481598181
2015-10-17 21:05:20.330238,559,488.29657813458562
2015-10-17 21:05:20.330407,566,488.14975145318942
2015-10-17 21:05:20.346036,574,488.00292477179323
2015-10-17 21:05:20.346238,584,487.85609809039704
2015-10-17 21:05:20.346403,591,487.70927140900085
2015-10-17 21:05:20.362043,596,487.56244472760466
2015-10-17 21:05:20.362239,603,487.41561804620846
2015-10-17 21:05:20.362401,612,487.26879136481227
2015-10-17 21:05:20.377918,619,487.12196468341602
2015-10-17 21:05:20.378118,626,486.97513800201983
2015-10-17 21:05:20.378217,632,486.82831132062364
2015-10-17 21:05:20.393925,635,486.68148463922745
2015-10-17 21:05:20.394196,635,486.53465795783126
2015-10-17 21:05:20.394367,637,486.38783127643512
2015-10-17 21:05:20.409947,640,486.24100459503893
2015-10-17 21:05:20.410159,643,486.0941779136428
2015-10-17 21:05:20.410331,639,485.9473512322466
2015-10-17 21:05:20.410493,635,485.80052455085053
2015-10-17 21:05:20.426075,631,485.65369786945428
2015-10-17 21:05:20.426269,623,485.5068711880582
2015-10-17 21:05:20.426431,609,485.36004450666206
2015-10-17 21:05:20.442071,591,485.21321782526587
2015-10-17 21:05:20.442264,575,485.06639114386974
2015-10-17 21:05:20.442426,555,484.91956446247355
2015-10-17 21:05:20.458073,534,484.77273778107741
2015-10-17 21:05:20.458264,517,484.62591109968122
2015-10-17 21:05:20.458429,505,484.47908441828508
2015-10-17 21:05:20.474025,492,484.33225773688889
2015-10-17 21:05:20.474217,478,484.18543105549276
2015-10-17 21:05:20.474385,467,484.03860437409656
2015-10-17 21:05:20.490027,459,483.87650238990807
2015-10-17 21:05:20.490221,455,483.86702895535888
2015-10-17 21:05:20.490382,449,483.83098011275837
2015-10-17 21:05:20.506030,447,483.7949312701578
2015-10-17 21:05:20.506218,444,483.7588824275573
2015-10-17 21:05:20.506387,441,483.72283358495673
2015-10-17 21:05:20.522000,438,483.68678474235622
2015-10-17 21:05:20.522187,433,483.65073589975566
2015-10-17 21:05:20.522354,432,483.61468705715515
2015-10-17 21:05:20.538029,436,483.57863821455459
2015-10-17 21:05:20.538224,439,483.54258937195408
2015-10-17 21:05:20.538393,440,483.50654052935346
2015-10-17 21:05:20.553975,436,483.47049168675301
2015-10-17 21:05:20.554170,433,483.43444284415239
2015-10-17 21:05:20.554337,433,483.39839400155188
2015-10-17 21:05:20.569979,434,483.36234515895131
2015-10-17 21:05:20.570176,433,483.32629631635081
2015-10-17 21:05:20.570342,430,483.29024747375024
2015-10-17 21:05:20.585921,430,483.25419863114973
2015-10-17 21:05:20.586123,431,483.21814978854917
2015-10-17 21:05:20.586288,431,483.18210094594866
2015-10-17 21:05:20.601916,430,483.1460521033481
2015-10-17 21:05:20.602122,430,483.11000326074759
2015-10-17 21:05:20.602291,434,483.07395441814708
2015-10-17 21:05:20.617919,437,483.03790557554652
2015-10-17 21:05:20.618118,438,483.00185673294601
2015-10-17 21:05:20.618283,441,482.96580789034545
2015-10-17 21:05:20.633825,443,482.92975904774494
2015-10-17 21:05:20.634093,445,482.89371020514437
2015-10-17 21:05:20.634264,448,482.85766136254387
2015-10-17 21:05:20.649824,453,482.82161251994324
2015-10-17 21:05:20.650090,456,482.78556367734279
2015-10-17 21:05:20.650260,458,482.74951483474217
2015-10-17 21:05:20.665877,460,482.71346599214161
2015-10-17 21:05:20.666151,463,482.67741714954104
2015-10-17 21:05:20.666325,466,482.64136830694048
2015-10-17 21:05:20.666488,464,482.60531946433991
2015-10-17 21:05:20.682002,465,482.56927062173924
2015-10-17 21:05:20.682197,469,482.53322177913867
2015-10-17 21:05:20.682366,476,482.49717293653799
2015-10-17 21:05:20.697983,481,482.46112409393743
2015-10-17 21:05:20.698174,482,482.42507525133681
2015-10-17 21:05:20.698339,484,482.38902640873619
2015-10-17 21:05:20.714016,484,482.35297756613556
2015-10-17 21:05:20.714208,480,482.316928723535
2015-10-17 21:05:20.714373,482,482.28087988093432
2015-10-17 21:05:20.729971,485,482.2448310383337
2015-10-17 21:05:20.730161,484,482.20878219573314
2015-10-17 21:05:20.730333,481,482.13002821069068
2015-10-17 21:05:20.745976,481,482.26280566831991
2015-10-17 21:05:20.746166,481,482.37358350711543
2015-10-17 21:05:20.746332,476,482.484361345911
2015-10-17 21:05:20.761905,474,482.59513918470651
2015-10-17 21:05:20.762094,475,482.70591702350208
2015-10-17 21:05:20.762259,479,482.81669486229765
2015-10-17 21:05:20.777878,478,482.92747270109317
2015-10-17 21:05:20.778073,474,483.03825053988874
2015-10-17 21:05:20.778240,472,483.14902837868425
2015-10-17 21:05:20.793957,472,483.25980621747982
2015-10-17 21:05:20.794144,472,483.37058405627539
2015-10-17 21:05:20.794303,472,483.4813618950709
2015-10-17 21:05:20.809864,473,483.59213973386647
2015-10-17 21:05:20.810063,471,483.70291757266199
2015-10-17 21:05:20.810233,469,483.81369541145756
2015-10-17 21:05:20.825669,468,483.92447325025313
2015-10-17 21:05:20.825867,474,484.03525108904864
2015-10-17 21:05:20.826036,477,484.14602892784421
2015-10-17 21:05:20.841817,478,484.25680676663973
2015-10-17 21:05:20.842021,479,484.3675846054353
2015-10-17 21:05:20.842189,480,484.47836244423092
2015-10-17 21:05:20.857815,478,484.5891402830265
2015-10-17 21:05:20.858013,476,484.69991812182201
2015-10-17 21:05:20.858177,478,484.81069596061758
2015-10-17 21:05:20.873725,480,484.92147379941309
2015-10-17 21:05:20.873991,480,485.03225163820866
2015-10-17 21:05:20.874159,480,485.14302947700423
2015-10-17 21:05:20.889699,482,485.25380731579975
2015-10-17 21:05:20.889965,482,485.36458515459532
2015-10-17 21:05:20.890137,480,485.47536299339083
2015-10-17 21:05:20.905705,481,485.5861408321864
2015-10-17 21:05:20.905974,484,485.69691867098197
2015-10-17 21:05:20.906147,485,485.80769650977749
2015-10-17 21:05:20.906309,483,485.91847434857306
2015-10-17 21:05:20.921932,484,486.02925218736857
2015-10-17 21:05:20.922123,487,486.14003002616414
2015-10-17 21:05:20.922290,489,486.25080786495971
2015-10-17 21:05:20.937853,489,486.36158570375522
2015-10-17 21:05:20.938042,493,486.4723635425508
2015-10-17 21:05:20.938208,500,486.58314138134631
2015-10-17 21:05:20.953854,503,486.69391922014188
2015-10-17 21:05:20.954048,500,486.80469705893745
2015-10-17 21:05:20.954220,499,486.91547489773296
2015-10-17 21:05:20.969825,501,487.02625273652853
2015-10-17 21:05:20.970017,504,487.13703057532405
2015-10-17 21:05:20.970183,502,487.24780841411962
2015-10-17 21:05:20.985827,502,487.35858625291519
2015-10-17 21:05:20.986022,508,487.4693640917107
2015-10-17 21:05:20.986188,510,487.58014193050627
2015-10-17 21:05:21.001798,510,487.6909197693019
2015-10-17 21:05:21.001991,514,487.80169760809741
2015-10-17 21:05:21.002160,519,487.92775074968534
2015-10-17 21:05:21.017777,517,487.90117534163397
2015-10-17 21:05:21.017975,509,487.90117534163397
2015-10-17 21:05:21.018136,498,487.90117534163397
2015-10-17 21:05:21.033767,491,487.90117534163397
2015-10-17 21:05:21.033961,492,487.90117534163397
2015-10-17 21:05:21.034127,495,487.90117534163397
2015-10-17 21:05:21.049837,501,487.90117534163397
2015-10-17 21:05:21.050040,503,487.90117534163397
2015-10-17 21:05:21.050217,499,487.90117534163397
2015-10-17 21:05:21.065727,498,487.90117534163397
2015-10-17 21:05:21.066428,499,487.90117534163397
2015-10-17 21:05:21.066642,497,487.90117534163397
2015-10-17 21:05:21.081436,496,487.90117534163397
2015-10-17 21:05:21.081582,500,487.90117534163397
2015-10-17 21:05:21.081691,503,487.90117534163397
2015-10-17 21:05:21.097465,511,487.90117534163397
2015-10-17 21:05:21.097635,553,487.90117534163397
2015-10-17 21:05:21.097735,641,487.90117534163397
2015-10-17 21:05:21.113279,753,487.90117534163397
2015-10-17 21:05:21.113343,875,487.90117534163397
2015-10-17 21:05:21.113389,941,487.90117534163397
2015-10-17 21:05:21.129321,918,487.90117534163397
2015-10-17 21:05:21.129398,810,487.90117534163397
2015-10-17 21:05:21.129449,566,487.90117534163397
2015-10-17 21:05:21.145246,375,487.90981924024197
2015-10-17 21:05:21.145306,356,487.82757951260754
2015-10-17 21:05:21.145353,395,487.74533978497305
2015-10-17 21:05:21.145399,445,487.66310005733862
2015-10-17 21:05:21.161583,481,487.58086032970419
2015-10-17 21:05:21.161693,491,487.49862060206976
2015-10-17 21:05:21.161788,488,487.41638087443533
2015-10-17 21:05:21.177857,482,487.33414114680085
2015-10-17 21:05:21.178050,481,487.25190141916642
2015-10-17 21:05:21.178224,485,487.16966169153199
2015-10-17 21:05:21.193759,489,487.08742196389755
2015-10-17 21:05:21.193954,496,487.00518223626312
2015-10-17 21:05:21.194123,506,486.92294250862864
2015-10-17 21:05:21.209744,519,486.84070278099421
2015-10-17 21:05:21.209936,526,486.75846305335978
2015-10-17 21:05:21.210106,530,486.67622332572535
2015-10-17 21:05:21.225736,538,486.59398359809092
2015-10-17 21:05:21.225934,544,486.51174387045643
2015-10-17 21:05:21.226102,550,486.429504142822
2015-10-17 21:05:21.241730,553,486.34726441518757
2015-10-17 21:05:21.241925,558,486.26502468755314
2015-10-17 21:05:21.242094,567,486.18278495991871
2015-10-17 21:05:21.257708,572,486.10054523228422
2015-10-17 21:05:21.257902,574,486.01830550464979
2015-10-17 21:05:21.258070,582,486.11060103363167
2015-10-17 21:05:21.273661,590,486.30489447040111
2015-10-17 21:05:21.273856,594,486.47201190743482
2015-10-17 21:05:21.274023,596,486.63912934446859
2015-10-17 21:05:21.289680,600,486.8062467815023
2015-10-17 21:05:21.289878,605,486.97336421853606
2015-10-17 21:05:21.290045,607,487.14048165556977
2015-10-17 21:05:21.305778,609,487.30759909260354
2015-10-17 21:05:21.305981,614,487.47471652963725
2015-10-17 21:05:21.306156,620,487.64183396667102
2015-10-17 21:05:21.321624,623,487.80895140370473
2015-10-17 21:05:21.321831,626,487.97606884073855
2015-10-17 21:05:21.322001,629,488.14318627777237
2015-10-17 21:05:21.337613,630,488.3103037148062
2015-10-17 21:05:21.337813,627,488.47742115184002
2015-10-17 21:05:21.337989,623,488.64453858887379
2015-10-17 21:05:21.353628,617,488.81165602590761
2015-10-17 21:05:21.353827,604,488.97877346294143
2015-10-17 21:05:21.353996,585,489.14589089997526
2015-10-17 21:05:21.369502,566,489.31300833700908
2015-10-17 21:05:21.369774,550,489.48012577404285
2015-10-17 21:05:21.369945,531,489.64724321107667
2015-10-17 21:05:21.385490,512,489.81436064811049
2015-10-17 21:05:21.385760,494,489.98147808514432
2015-10-17 21:05:21.385926,478,490.14859552217814
2015-10-17 21:05:21.401479,462,490.31571295921191
2015-10-17 21:05:21.401743,451,490.48283039624573
2015-10-17 21:05:21.401913,443,490.64994783327955
2015-10-17 21:05:21.402078,437,490.81706527031338
2015-10-17 21:05:21.417620,431,490.9841827073472
2015-10-17 21:05:21.417815,428,491.15388833483206
2015-10-17 21:05:21.417983,428,491.32359396231692
2015-10-17 21:05:21.433756,427,491.49459368502733
2015-10-17 21:05:21.433953,424,491.66947569341426
2015-10-17 21:05:21.434126,422,491.84694589225217
2015-10-17 21:05:21.449650,423,492.02441609109002
2015-10-17 21:05:21.449844,425,492.20188628992793
2015-10-17 21:05:21.450008,423,492.37935648876584
2015-10-17 21:05:21.465633,423,492.55682668760375
2015-10-17 21:05:21.465828,426,492.73429688644165
2015-10-17 21:05:21.465996,425,492.91176708527956
2015-10-17 21:05:21.481605,424,493.08923728411747
2015-10-17 21:05:21.481801,429,493.26670748295538
2015-10-17 21:05:21.481978,434,493.44417768179329
2015-10-17 21:05:21.497582,433,493.6216478806312
2015-10-17 21:05:21.497773,430,493.79911807946911
2015-10-17 21:05:21.497943,433,493.97658827830702
2015-10-17 21:05:21.513629,436,494.15405847714493
2015-10-17 21:05:21.513843,436,494.33152867598272
2015-10-17 21:05:21.514012,435,494.50899887482063
2015-10-17 21:05:21.529550,435,494.68646907365854
2015-10-17 21:05:21.529743,435,494.86393927249645
2015-10-17 21:05:21.529909,435,495.0414094713343
2015-10-17 21:05:21.545340,434,495.21887967017221
2015-10-17 21:05:21.545538,438,495.39634986901012
2015-10-17 21:05:21.545709,444,495.57382006784798
2015-10-17 21:05:21.561611,444,495.75129026668588
2015-10-17 21:05:21.561816,445,495.92876046552379
2015-10-17 21:05:21.561986,447,496.10623066436159
2015-10-17 21:05:21.577501,446,496.2837008631995
2015-10-17 21:05:21.577706,448,496.46117106203741
2015-10-17 21:05:21.577873,451,496.63864126087532
2015-10-17 21:05:21.593464,456,496.81611145971323
2015-10-17 21:05:21.593667,459,496.99358165855114
2015-10-17 21:05:21.593835,461,497.17105185738899
2015-10-17 21:05:21.609367,464,497.3485220562269
2015-10-17 21:05:21.609637,468,497.52599225506475
2015-10-17 21:05:21.609809,470,497.70346245390266
2015-10-17 21:05:21.625365,470,497.88093265274051
2015-10-17 21:05:21.625635,471,498.05840285157831
2015-10-17 21:05:21.625804,474,498.23587305041622
2015-10-17 21:05:21.641365,473,498.41334324925413
2015-10-17 21:05:21.641635,472,498.59081344809192
2015-10-17 21:05:21.641802,473,498.76828364692983
2015-10-17 21:05:21.641965,472,498.94575384576763
2015-10-17 21:05:21.657517,470,499.12322404460554
2015-10-17 21:05:21.657708,467,499.29205034483539
2015-10-17 21:05:21.657872,466,499.55176027130767
2015-10-17 21:05:21.673518,464,499.81147019777984
2015-10-17 21:05:21.673709,459,500.07118012425212
2015-10-17 21:05:21.673875,460,500.33089005072441
2015-10-17 21:05:21.689558,463,500.59059997719669
2015-10-17 21:05:21.689756,462,500.85030990366897
2015-10-17 21:05:21.689932,459,501.11001983014125
2015-10-17 21:05:21.705493,457,501.36972975661354
2015-10-17 21:05:21.705687,459,501.62943968308571
2015-10-17 21:05:21.705852,458,501.88914960955799
2015-10-17 21:05:21.721469,457,502.14885953603016
2015-10-17 21:05:21.721661,459,502.40856946250244
2015-10-17 21:05:21.721825,459,502.66827938897472
2015-10-17 21:05:21.737473,457,502.92798931544689
2015-10-17 21:05:21.737668,456,503.18769924191918
2015-10-17 21:05:21.737832,456,503.44740916839146
2015-10-17 21:05:21.753433,454,503.70711909486374
2015-10-17 21:05:21.753629,453,503.96682902133603
2015-10-17 21:05:21.753797,453,504.22653894780831
2015-10-17 21:05:21.769375,456,504.48624887428048
2015-10-17 21:05:21.769571,459,504.74595880075276
2015-10-17 21:05:21.769734,459,505.00566872722493
2015-10-17 21:05:21.785425,459,505.26537865369721
2015-10-17 21:05:21.785620,460,505.35055332355319
2015-10-17 21:05:21.785793,461,505.3337300856216
2015-10-17 21:05:21.801387,461,505.34408284742563
2015-10-17 21:05:21.801593,462,505.35443560922977
2015-10-17 21:05:21.801764,462,505.3647883710338
2015-10-17 21:05:21.817434,463,505.37514113283783
2015-10-17 21:05:21.817637,460,505.38549389464185
2015-10-17 21:05:21.817806,462,505.395846656446
2015-10-17 21:05:21.833385,465,505.40619941825003
2015-10-17 21:05:21.833588,464,505.41655218005405
2015-10-17 21:05:21.833756,462,505.42690494185808
2015-10-17 21:05:21.849257,464,505.43725770366223
2015-10-17 21:05:21.849526,469,505.44761046546625
2015-10-17 21:05:21.849697,469,505.4579632272704
2015-10-17 21:05:21.865269,469,505.46831598907431
2015-10-17 21:05:21.865534,472,505.47866875087846
2015-10-17 21:05:21.865704,475,505.48902151268248
2015-10-17 21:05:21.881265,477,505.49937427448663
2015-10-17 21:05:21.881536,479,505.50972703629066
2015-10-17 21:05:21.881705,487,505.52007979809468
2015-10-17 21:05:21.897309,492,505.53043255989883
2015-10-17 21:05:21.897730,488,505.54078532170286
2015-10-17 21:05:21.898120,486,505.55113808350688
2015-10-17 21:05:21.898232,491,505.56149084531103
2015-10-17 21:05:21.913806,495,505.57184360711506
2015-10-17 21:05:21.914242,495,505.5821963689192
2015-10-17 21:05:21.914373,497,505.59254913072323
2015-10-17 21:05:21.929405,500,505.60290189252726
2015-10-17 21:05:21.929591,495,505.6132546543314
2015-10-17 21:05:21.929753,485,505.62360741613543
2015-10-17 21:05:21.945484,477,505.63137198748848
2015-10-17 21:05:21.945684,473,505.63913655884153
2015-10-17 21:05:21.945857,472,505.64560703496909
2015-10-17 21:05:21.961391,472,505.64819522542007
2015-10-17 21:05:21.961586,472,505.64819522542007
2015-10-17 21:05:21.961751,475,505.64819522542007
2015-10-17 21:05:21.977370,477,505.64819522542007
2015-10-17 21:05:21.977556,479,505.64819522542007
2015-10-17 21:05:21.977723,479,505.64819522542007
2015-10-17 21:05:21.993354,480,505.64819522542007
2015-10-17 21:05:21.993548,482,505.64819522542007
2015-10-17 21:05:21.993715,487,505.64819522542007
2015-10-17 21:05:22.009328,491,505.64819522542007
2015-10-17 21:05:22.009522,505,505.64819522542007
2015-10-17 21:05:22.009688,551,505.64819522542007
2015-10-17 21:05:22.025337,641,505.64819522542007
2015-10-17 21:05:22.025533,755,505.64819522542007
2015-10-17 21:05:22.025700,876,505.64819522542007
2015-10-17 21:05:22.041342,937,505.64819522542007
2015-10-17 21:05:22.041536,912,505.64819522542007
2015-10-17 21:05:22.041705,792,505.64819522542007
2015-10-17 21:05:22.057166,529,505.64819522542007
2015-10-17 21:05:22.057361,336,505.38277634256144
2015-10-17 21:05:22.057529,313,504.82226729851425
2015-10-17 21:05:22.073259,347,504.26617311562791
2015-10-17 21:05:22.073455,399,503.71007893274168
2015-10-17 21:05:22.073621,439,503.15398474985534
2015-10-17 21:05:22.089299,457,502.597890566969
2015-10-17 21:05:22.089505,461,502.04179638408277
2015-10-17 21:05:22.089672,460,501.48570220119643
2015-10-17 21:05:22.105177,465,500.92960801831009
2015-10-17 21:05:22.105436,472,500.37351383542386
2015-10-17 21:05:22.105597,476,499.81741965253752
2015-10-17 21:05:22.121180,482,499.2613254696513
2015-10-17 21:05:22.121446,494,498.70523128676496
2015-10-17 21:05:22.121615,514,498.14913710387862
2015-10-17 21:05:22.137213,531,497.59304292099233
2015-10-17 21:05:22.137447,541,497.03694873810605
2015-10-17 21:05:22.137710,550,496.48085455521976
2015-10-17 21:05:22.137875,563,495.92476037233342
2015-10-17 21:05:22.153340,574,495.36866618944714
2015-10-17 21:05:22.153529,578,494.81257200656086
2015-10-17 21:05:22.153695,583,494.25647782367457
2015-10-17 21:05:22.169339,591,493.70038364078823
2015-10-17 21:05:22.169530,599,493.14428945790195
2015-10-17 21:05:22.169694,607,492.58819527501566
2015-10-17 21:05:22.185342,616,492.03210109212932
2015-10-17 21:05:22.185534,626,491.42553719544816
2015-10-17 21:05:22.185697,636,490.81379691786492
2015-10-17 21:05:22.201378,640,490.20205664028168
2015-10-17 21:05:22.201569,645,489.59031636269845
2015-10-17 21:05:22.201737,654,488.97857608511526
2015-10-17 21:05:22.217307,661,488.36683580753203
2015-10-17 21:05:22.217509,663,487.75509552994879
2015-10-17 21:05:22.217686,666,487.14335525236555
2015-10-17 21:05:22.233295,669,486.53161497478231
2015-10-17 21:05:22.233488,674,485.91987469719908
2015-10-17 21:05:22.233654,678,485.30813441961584
2015-10-17 21:05:22.249227,681,484.6963941420326
2015-10-17 21:05:22.249413,684,484.08465386444942
2015-10-17 21:05:22.249575,681,483.47291358686607
2015-10-17 21:05:22.265241,674,482.86117330928289
2015-10-17 21:05:22.265434,669,482.24943303169965
2015-10-17 21:05:22.265600,660,481.63769275411642
2015-10-17 21:05:22.281237,644,481.02595247653318
2015-10-17 21:05:22.281431,628,480.41421219894994
2015-10-17 21:05:22.281594,608,479.8024719213667
2015-10-17 21:05:22.297202,585,479.19073164378347
2015-10-17 21:05:22.297401,563,478.57899136620023
2015-10-17 21:05:22.297565,544,477.96725108861699
2015-10-17 21:05:22.313184,528,477.35551081103381
2015-10-17 21:05:22.313384,512,476.74377053345057
2015-10-17 21:05:22.313551,499,476.13203025586733
2015-10-17 21:05:22.329250,490,475.5202899782841
2015-10-17 21:05:22.329461,482,474.90854970070086
2015-10-17 21:05:22.329639,475,474.29680942311762
2015-10-17 21:05:22.345089,469,473.68506914553438
2015-10-17 21:05:22.345355,467,473.07332886795115
2015-10-17 21:05:22.345526,466,472.46158859036797
2015-10-17 21:05:22.360955,465,471.84984831278473
2015-10-17 21:05:22.361224,461,471.23810803520149
2015-10-17 21:05:22.361393,459,470.62636775761831
2015-10-17 21:05:22.377064,459,470.01462748003507
2015-10-17 21:05:22.377326,457,469.40288720245195
2015-10-17 21:05:22.377495,454,468.79114692486877
2015-10-17 21:05:22.377659,455,468.17940664728553
2015-10-17 21:05:22.393245,455,467.56766636970241
2015-10-17 21:05:22.393438,455,466.95592609211917
2015-10-17 21:05:22.393606,457,466.34418581453599
2015-10-17 21:05:22.409242,460,465.73244553695275
2015-10-17 21:05:22.409433,463,465.12070525936963
2015-10-17 21:05:22.409596,459,464.50896498178645
2015-10-17 21:05:22.425207,456,463.89722470420321
2015-10-17 21:05:22.425399,457,463.28548442662009
2015-10-17 21:05:22.425566,457,462.67374414903685
2015-10-17 21:05:22.441166,454,462.06200387145367
2015-10-17 21:05:22.441357,454,461.45026359387043
2015-10-17 21:05:22.441523,457,460.83852331628731
2015-10-17 21:05:22.457219,458,460.22678303870413
2015-10-17 21:05:22.457414,457,459.61504276112089
2015-10-17 21:05:22.457576,460,459.00330248353777
2015-10-17 21:05:22.473159,465,458.39156220595453
2015-10-17 21:05:22.473347,466,457.77982192837135
2015-10-17 21:05:22.473517,466,457.16808165078811
2015-10-17 21:05:22.489194,469,456.55634137320499
2015-10-17 21:05:22.489384,472,455.94460109562175
2015-10-17 21:05:22.489546,473,455.33286081803857
2015-10-17 21:05:22.505210,474,454.72112054045544
2015-10-17 21:05:22.505406,477,454.10938026287209
2015-10-17 21:05:22.505594,480,453.49763998528897
2015-10-17 21:05:22.521138,484,452.88589970770573
2015-10-17 21:05:22.521330,487,452.27415943012255
2015-10-17 21:05:22.521494,490,451.66241915253931
2015-10-17 21:05:22.537077,490,451.05067887495619
2015-10-17 21:05:22.537273,490,450.43893859737295
2015-10-17 21:05:22.537433,490,449.82719831978977
2015-10-17 21:05:22.553082,493,449.21545804220654
2015-10-17 21:05:22.553282,493,448.60371776462335
2015-10-17 21:05:22.553447,491,447.99197748704017
2015-10-17 21:05:22.569069,491,447.38023720945694
2015-10-17 21:05:22.569267,491,446.7684969318737
2015-10-17 21:05:22.569430,490,446.15675665429058
2015-10-17 21:05:22.585098,487,445.81043525956602
2015-10-17 21:05:22.585305,486,445.75920402603003
2015-10-17 21:05:22.585483,486,445.70355793133319
2015-10-17 21:05:22.600967,484,445.64791183663624
2015-10-17 21:05:22.601234,483,445.5922657419394
2015-10-17 21:05:22.601405,483,445.53661964724245
2015-10-17 21:05:22.616963,481,445.48097355254561
2015-10-17 21:05:22.617233,480,445.42532745784865
2015-10-17 21:05:22.617408,478,445.36968136315181
2015-10-17 21:05:22.632962,480,445.31403526845486
2015-10-17 21:05:22.633228,483,445.25838917375802
2015-10-17 21:05:22.633396,484,445.20274307906107
2015-10-17 21:05:22.633557,483,445.14709698436417
2015-10-17 21:05:22.649113,483,445.09145088966727
2015-10-17 21:05:22.649307,485,445.03580479497037
2015-10-17 21:05:22.649470,485,444.98015870027342
2015-10-17 21:05:22.665109,483,444.92451260557658
2015-10-17 21:05:22.665296,485,444.86886651087963
2015-10-17 21:05:22.665457,483,444.81322041618279
2015-10-17 21:05:22.681122,481,444.75757432148583
2015-10-17 21:05:22.681311,482,444.70192822678899
2015-10-17 21:05:22.681479,481,444.64628213209204
2015-10-17 21:05:22.697095,479,444.5906360373952
2015-10-17 21:05:22.697286,479,444.53498994269825
2015-10-17 21:05:22.697458,481,444.47934384800135
2015-10-17 21:05:22.713112,481,444.47416746709939
2015-10-17 21:05:22.713304,480,444.47416746709939
2015-10-17 21:05:22.713474,478,444.47416746709939
2015-10-17 21:05:22.729074,482,444.47416746709939
2015-10-17 21:05:22.729266,487,444.47416746709939
2015-10-17 21:05:22.729431,488,444.47416746709939
2015-10-17 21:05:22.745038,488,444.47416746709939
2015-10-17 21:05:22.745235,490,444.47416746709939
2015-10-17 21:05:22.745402,492,444.47416746709939
2015-10-17 21:05:22.761030,491,444.47416746709939
2015-10-17 21:05:22.761223,490,444.47416746709939
2015-10-17 21:05:22.761461,494,444.47416746709939
2015-10-17 21:05:22.777016,499,444.47416746709939
2015-10-17 21:05:22.777206,497,444.47416746709939
2015-10-17 21:05:22.777368,492,444.47416746709939
2015-10-17 21:05:22.792973,494,444.47416746709939
2015-10-17 21:05:22.793170,499,444.47416746709939
2015-10-17 21:05:22.793334,499,444.47416746709939
2015-10-17 21:05:22.808978,498,444.47416746709939
2015-10-17 21:05:22.809177,498,444.47416746709939
2015-10-17 21:05:22.809348,495,444.47416746709939
2015-10-17 21:05:22.824949,488,444.47416746709939
2015-10-17 21:05:22.825148,481,444.47416746709939
2015-10-17 21:05:22.825314,473,444.47416746709939
2015-10-17 21:05:22.840891,466,444.47416746709939
2015-10-17 21:05:22.841114,463,444.47416746709939
2015-10-17 21:05:22.841291,461,444.47416746709939
2015-10-17 21:05:22.856868,459,444.47416746709939
2015-10-17 21:05:22.857137,456,444.47416746709939
2015-10-17 21:05:22.857313,457,444.47416746709939
2015-10-17 21:05:22.872919,463,444.47416746709939
2015-10-17 21:05:22.873602,465,444.47416746709939
2015-10-17 21:05:22.873776,463,444.47416746709939
2015-10-17 21:05:22.873875,462,444.47416746709939
2015-10-17 21:05:22.889048,469,444.47416746709939
2015-10-17 21:05:22.889239,474,444.47416746709939
2015-10-17 21:05:22.889404,485,444.47416746709939
2015-10-17 21:05:22.905018,527,444.47416746709939
2015-10-17 21:05:22.905212,614,444.47416746709939
2015-10-17 21:05:22.905376,720,444.47416746709939
2015-10-17 21:05:22.921017,844,444.47416746709939
2015-10-17 21:05:22.921207,925,444.47416746709939
2015-10-17 21:05:22.921368,919,444.47416746709939
2015-10-17 21:05:22.936991,826,444.47416746709939
2015-10-17 21:05:22.937183,592,444.47416746709939
2015-10-17 21:05:22.937349,391,444.48452022890348
2015-10-17 21:05:22.952994,366,444.52722537134531
2015-10-17 21:05:22.953184,393,444.56993051378714
2015-10-17 21:05:22.953351,436,444.61263565622897
2015-10-17 21:05:22.969024,477,444.65534079867086
2015-10-17 21:05:22.969222,496,444.6980459411127
2015-10-17 21:05:22.969392,496,444.74075108355453
2015-10-17 21:05:22.984936,494,444.78345622599636
2015-10-17 21:05:22.985127,494,444.82616136843825
2015-10-17 21:05:22.985294,496,444.86886651088008
2015-10-17 21:05:23.000941,494,444.91157165332191
2015-10-17 21:05:23.001136,495,444.95427679576375
2015-10-17 21:05:23.001303,504,444.99698193820564
2015-10-17 21:05:23.016938,516,445.03968708064747
2015-10-17 21:05:23.017127,523,445.0823922230893
2015-10-17 21:05:23.017291,526,445.12509736553113
2015-10-17 21:05:23.032875,533,445.16780250797302
2015-10-17 21:05:23.033077,539,445.21050765041485
2015-10-17 21:05:23.033243,544,445.25321279285669
2015-10-17 21:05:23.048884,550,445.29591793529852
2015-10-17 21:05:23.049085,553,445.33862307774041
2015-10-17 21:05:23.049249,556,445.38132822018224
2015-10-17 21:05:23.064871,558,445.42403336262407
2015-10-17 21:05:23.065071,562,445.4667385050659
2015-10-17 21:05:23.065232,570,445.50944364750774
2015-10-17 21:05:23.080780,577,445.55214878994963
2015-10-17 21:05:23.081051,584,445.59485393239146
2015-10-17 21:05:23.081223,591,445.63755907483329
2015-10-17 21:05:23.096834,599,445.68026421727512
2015-10-17 21:05:23.097137,605,445.7229693597169
2015-10-17 21:05:23.097315,611,445.86792624985998
2015-10-17 21:05:23.112792,617,446.38947640474191
2015-10-17 21:05:23.113060,622,447.20863689506342
2015-10-17 21:05:23.113228,625,447.9799158620412
2015-10-17 21:05:23.113392,629,448.75119482901891
2015-10-17 21:05:23.128965,636,449.52247379599669
2015-10-17 21:05:23.129155,640,450.29375276297435
2015-10-17 21:05:23.129321,638,451.06503172995212
2015-10-17 21:05:23.144961,637,451.83631069692984
2015-10-17 21:05:23.145150,637,452.60758966390762
2015-10-17 21:05:23.145315,633,453.37886863088528
2015-10-17 21:05:23.160967,624,454.15014759786305
2015-10-17 21:05:23.161160,612,454.92142656484077
2015-10-17 21:05:23.161328,599,455.69270553181855
2015-10-17 21:05:23.176933,580,456.46398449879626
2015-10-17 21:05:23.177123,558,457.23526346577398
2015-10-17 21:05:23.177287,539,458.0065424327517
2015-10-17 21:05:23.192870,519,458.77782139972948
2015-10-17 21:05:23.193057,501,459.54910036670719
2015-10-17 21:05:23.193225,488,460.32037933368497
2015-10-17 21:05:23.208942,479,461.09165830066263
2015-10-17 21:05:23.209132,469,461.8629372676404
2015-10-17 21:05:23.209295,459,462.63421623461812
2015-10-17 21:05:23.224967,453,463.4054952015959
2015-10-17 21:05:23.225165,450,464.17677416857356
2015-10-17 21:05:23.225336,446,464.94805313555133
2015-10-17 21:05:23.240916,442,465.71933210252905
2015-10-17 21:05:23.241111,439,466.49061106950683
2015-10-17 21:05:23.241275,439,467.2618900364846
2015-10-17 21:05:23.256841,435,468.03446309868781
2015-10-17 21:05:23.257035,431,468.81221254179303
2015-10-17 21:05:23.257205,430,469.5912560801238
2015-10-17 21:05:23.272829,433,470.37029961845457
2015-10-17 21:05:23.273020,433,471.14934315678528
2015-10-17 21:05:23.273187,432,471.92838669511605
2015-10-17 21:05:23.288804,432,472.70743023344676
2015-10-17 21:05:23.289001,433,473.48647377177747
2015-10-17 21:05:23.289163,432,474.26551731010824
2015-10-17 21:05:23.304794,431,475.04456084843895
2015-10-17 21:05:23.304992,434,475.82360438676972
2015-10-17 21:05:23.305163,440,476.60264792510037
2015-10-17 21:05:23.320773,442,477.38169146343108
2015-10-17 21:05:23.320977,445,478.16073500176185
2015-10-17 21:05:23.321143,450,478.93977854009256
2015-10-17 21:05:23.336683,456,479.71882207842322
2015-10-17 21:05:23.336950,457,480.49786561675404
2015-10-17 21:05:23.337122,460,481.2769091550847
2015-10-17 21:05:23.352735,463,482.05595269341541
2015-10-17 21:05:23.353014,464,482.83499623174617
2015-10-17 21:05:23.353194,464,483.61403977007689
2015-10-17 21:05:23.368678,461,484.39308330840754
2015-10-17 21:05:23.368932,464,485.17212684673831
2015-10-17 21:05:23.369098,466,485.95117038506902
2015-10-17 21:05:23.369256,465,486.73021392339973
2015-10-17 21:05:23.384823,463,487.5092574617305
2015-10-17 21:05:23.385015,463,488.28830100006121
2015-10-17 21:05:23.385181,465,489.06734453839198
2015-10-17 21:05:23.400843,468,489.84638807672269
2015-10-17 21:05:23.401035,471,490.6254316150534
2015-10-17 21:05:23.401199,474,491.40447515338423
2015-10-17 21:05:23.416846,475,492.18351869171499
2015-10-17 21:05:23.417035,475,492.96256223004571
2015-10-17 21:05:23.417197,472,493.74160576837642
2015-10-17 21:05:23.432811,473,494.52064930670724
2015-10-17 21:05:23.432998,475,495.29969284503795
2015-10-17 21:05:23.433167,474,496.07873638336878
2015-10-17 21:05:23.448795,476,496.85777992169949
2015-10-17 21:05:23.448985,480,497.63682346003031
2015-10-17 21:05:23.449150,483,498.41586699836114
2015-10-17 21:05:23.464789,483,499.19491053669185
2015-10-17 21:05:23.464982,485,499.96360131321853
2015-10-17 21:05:23.465146,482,500.69993970910764
2015-10-17 21:05:23.480799,480,501.43627810499652
2015-10-17 21:05:23.480995,482,502.17261650088551
2015-10-17 21:05:23.481161,483,502.9089548967745
2015-10-17 21:05:23.496764,482,503.6452932926635
2015-10-17 21:05:23.496957,479,504.38163168855249
2015-10-17 21:05:23.497123,477,505.11797008444148
2015-10-17 21:05:23.512701,478,505.85430848033036
2015-10-17 21:05:23.512896,477,506.59064687621947
2015-10-17 21:05:23.513063,476,507.32698527210835
2015-10-17 21:05:23.528672,476,508.06332366799734
2015-10-17 21:05:23.528873,479,508.79966206388633
2015-10-17 21:05:23.529038,480,509.53600045977532
2015-10-17 21:05:23.544660,479,510.2723388556642
2015-10-17 21:05:23.544859,480,511.00867725155331
2015-10-17 21:05:23.545025,482,511.74501564744219
2015-10-17 21:05:23.560672,483,512.48135404333118
2015-10-17 21:05:23.560874,484,513.21769243922017
2015-10-17 21:05:23.561040,487,513.95403083510917
2015-10-17 21:05:23.576546,493,514.69036923099804
2015-10-17 21:05:23.576817,500,515.42670762688704
2015-10-17 21:05:23.576988,499,516.16304602277603
2015-10-17 21:05:23.592553,500,516.89938441866502
2015-10-17 21:05:23.592820,505,517.63572281455401
2015-10-17 21:05:23.592991,508,518.37206121044301
2015-10-17 21:05:23.608586,508,519.10839960633189
2015-10-17 21:05:23.608862,512,519.84473800222088
2015-10-17 21:05:23.609042,514,520.58107639810987
2015-10-17 21:05:23.609211,512,521.31741479399886
2015-10-17 21:05:23.624700,505,521.95150144218644
2015-10-17 21:05:23.624893,501,522.20899482563539
2015-10-17 21:05:23.625063,490,522.16887787364453
2015-10-17 21:05:23.640704,485,522.17664244499758
2015-10-17 21:05:23.640896,488,522.18440701635063
2015-10-17 21:05:23.641061,492,522.19217158770368
2015-10-17 21:05:23.656704,495,522.19993615905673
2015-10-17 21:05:23.656893,496,522.20770073040978
